0.023,-0.026,0.002,0.006,0.004,0.011,0.006,0.013
,-0.00,-0.01!,6999783,2
0.023,-0.026,0.005,0.009,0.005,0.016,0.014,0.016
,0.02,0.03!,20,2
0.023,-0.026,0.005,0.011,0.006,0.019,0.016,0.019
,0.03,0.05!,10,2
0.023,-0.026,0.008,0.013,0.007,0.022,0.019,0.023
,-0.07,-0.03!,10,2
0.023,-0.026,0.009,0.014,0.007,0.024,0.021,0.028
,-0.13,-0.10!,10,2
0.023,-0.026,0.009,0.015,0.009,0.027,0.022,0.032
,-0.11,-0.11!,10,2
0.023,-0.026,0.010,0.016,0.011,0.029,0.023,0.035
,-0.10,-0.10!,10,2
0.023,-0.026,0.010,0.017,0.011,0.032,0.024,0.038
,-0.09,-0.09!,10,2
0.023,-0.026,0.010,0.018,0.012,0.035,0.024,0.041
,-0.08,-0.08!,10,2
0.023,-0.026,0.010,0.019,0.013,0.036,0.027,0.042
,-0.09,-0.07!,10,2
0.023,-0.026,0.010,0.019,0.013,0.037,0.028,0.042
,-0.10,-0.07!,10,2
0.023,-0.026,0.009,0.019,0.012,0.036,0.026,0.042
,-0.11,-0.10!,10,2
0.023,-0.026,0.011,0.019,0.012,0.036,0.026,0.043
,-0.12,-0.10!,10,2
0.023,-0.026,0.009,0.019,0.013,0.035,0.025,0.045
,-0.13,-0.10!,10,2
0.023,-0.026,0.008,0.019,0.014,0.035,0.024,0.044
,-0.13,-0.09!,10,2
0.023,-0.026,0.008,0.019,0.013,0.035,0.024,0.043
,-0.14,-0.08!,10,2
0.023,-0.026,0.008,0.019,0.012,0.036,0.024,0.043
,-0.14,-0.07!,10,2
0.023,-0.026,0.008,0.020,0.012,0.035,0.026,0.041
,-0.14,-0.07!,10,2
0.023,-0.026,0.008,0.020,0.012,0.034,0.026,0.041
,-0.14,-0.07!,10,2
0.023,-0.026,0.008,0.020,0.012,0.034,0.025,0.042
,-0.15,-0.09!,10,2
0.023,-0.026,0.008,0.020,0.012,0.033,0.025,0.042
,-0.14,-0.09!,10,2
0.023,-0.026,0.009,0.020,0.012,0.033,0.026,0.043
,-0.14,-0.10!,10,2
0.023,-0.027,0.008,0.020,0.012,0.033,0.026,0.042
,-0.12,-0.10!,10,2
0.023,-0.027,0.009,0.020,0.012,0.033,0.026,0.040
,-0.12,-0.06!,10,2
0.023,-0.028,0.010,0.019,0.011,0.034,0.026,0.039
,-0.12,-0.04!,10,2
0.023,-0.028,0.011,0.020,0.012,0.034,0.027,0.039
,-0.11,-0.07!,10,2
0.023,-0.028,0.011,0.020,0.012,0.034,0.027,0.038
,-0.09,-0.09!,10,2
0.023,-0.028,0.012,0.019,0.012,0.034,0.027,0.039
,-0.08,-0.10!,10,2
0.023,-0.028,0.013,0.020,0.012,0.034,0.027,0.042
,-0.06,-0.10!,10,2
0.023,-0.028,0.015,0.019,0.013,0.035,0.026,0.042
,-0.04,-0.11!,10,2
0.023,-0.028,0.015,0.020,0.012,0.035,0.025,0.042
,-0.01,-0.09!,10,2
0.023,-0.027,0.014,0.019,0.014,0.035,0.026,0.041
,-0.01,-0.08!,10,2
0.023,-0.027,0.014,0.019,0.014,0.037,0.025,0.042
,-0.03,-0.07!,10,2
0.023,-0.028,0.014,0.020,0.013,0.037,0.027,0.042
,-0.04,-0.07!,10,2
0.023,-0.028,0.014,0.021,0.013,0.036,0.027,0.042
,-0.05,0.20!,10,2
0.023,-0.028,0.014,0.020,0.013,0.037,0.027,0.041
,-0.05,0.34!,10,2
0.023,-0.028,0.013,0.020,0.013,0.036,0.027,0.042
,-0.05,0.08!,10,2
0.023,-0.027,0.013,0.020,0.013,0.037,0.026,0.043
,-0.05,-0.10!,10,2
0.023,-0.027,0.011,0.020,0.013,0.036,0.026,0.041
,-0.06,-0.39!,10,2
0.023,-0.027,0.010,0.020,0.013,0.036,0.025,0.041
,-0.08,-0.51!,10,2
0.023,-0.027,0.009,0.020,0.013,0.037,0.025,0.041
,-0.11,-0.24!,10,2
0.023,-0.027,0.009,0.020,0.012,0.038,0.024,0.040
,-0.13,-0.05!,10,2
0.023,-0.027,0.009,0.020,0.012,0.038,0.025,0.040
,-0.13,-0.00!,10,2
0.023,-0.027,0.008,0.019,0.012,0.037,0.023,0.041
,-0.13,-0.03!,10,2
0.023,-0.027,0.010,0.019,0.012,0.038,0.024,0.041
,-0.13,-0.05!,10,2
0.023,-0.027,0.009,0.019,0.012,0.037,0.023,0.043
,-0.13,-0.06!,10,2
0.023,-0.027,0.009,0.018,0.012,0.038,0.024,0.043
,-0.12,-0.06!,10,2
0.023,-0.027,0.009,0.018,0.012,0.036,0.024,0.041
,-0.12,-0.06!,10,2
0.023,-0.027,0.009,0.017,0.012,0.038,0.026,0.040
,-0.11,-0.07!,10,2
0.023,-0.028,0.009,0.017,0.011,0.038,0.026,0.040
,-0.10,-0.08!,10,2
0.023,-0.027,0.010,0.017,0.011,0.038,0.026,0.040
,-0.09,0.20!,10,2
0.023,-0.027,0.010,0.017,0.010,0.038,0.027,0.041
,-0.08,0.36!,10,2
0.023,-0.027,0.011,0.017,0.011,0.037,0.027,0.042
,-0.07,0.10!,10,2
0.023,-0.027,0.011,0.016,0.011,0.036,0.027,0.042
,-0.06,-0.09!,10,2
0.023,-0.027,0.010,0.016,0.011,0.037,0.026,0.041
,-0.05,-0.13!,10,2
0.023,-0.027,0.010,0.017,0.010,0.037,0.027,0.041
,-0.05,-0.10!,10,2
0.023,-0.028,0.009,0.017,0.009,0.037,0.026,0.041
,-0.06,-0.08!,10,2
0.023,-0.027,0.009,0.017,0.009,0.038,0.026,0.042
,-0.07,0.20!,10,2
0.023,-0.027,0.009,0.018,0.009,0.036,0.024,0.042
,-0.08,0.37!,10,2
0.023,-0.027,0.009,0.017,0.009,0.036,0.025,0.042
,-0.08,0.13!,10,2
0.023,-0.027,0.008,0.016,0.009,0.035,0.026,0.042
,-0.08,-0.06!,10,2
0.023,-0.027,0.008,0.016,0.009,0.035,0.026,0.042
,-0.08,-0.12!,10,2
0.023,-0.027,0.008,0.017,0.009,0.036,0.025,0.043
,-0.08,-0.11!,10,2
0.023,-0.027,0.008,0.017,0.008,0.035,0.025,0.043
,-0.09,-0.09!,10,2
0.023,-0.027,0.007,0.017,0.008,0.035,0.025,0.045
,-0.09,-0.08!,10,2
0.023,-0.027,0.007,0.016,0.008,0.035,0.024,0.044
,-0.11,-0.09!,10,2
0.023,-0.027,0.007,0.018,0.007,0.034,0.025,0.043
,-0.12,-0.09!,10,2
0.023,-0.027,0.007,0.017,0.007,0.034,0.025,0.043
,-0.13,-0.09!,10,2
0.023,-0.027,0.007,0.017,0.007,0.034,0.025,0.043
,-0.13,-0.09!,10,2
0.023,-0.027,0.007,0.017,0.007,0.034,0.024,0.044
,-0.13,-0.09!,10,2
0.023,-0.027,0.008,0.017,0.008,0.035,0.024,0.046
,-0.14,-0.09!,10,2
0.023,-0.027,0.008,0.017,0.008,0.036,0.023,0.045
,-0.12,-0.08!,10,2
0.023,-0.027,0.008,0.016,0.008,0.035,0.024,0.043
,-0.10,-0.07!,10,2
0.023,-0.027,0.008,0.016,0.008,0.035,0.024,0.042
,-0.10,-0.06!,10,2
0.023,-0.027,0.009,0.016,0.008,0.035,0.024,0.042
,-0.11,-0.07!,10,2
0.023,-0.027,0.008,0.018,0.009,0.035,0.024,0.042
,-0.13,-0.07!,10,2
0.023,-0.027,0.008,0.017,0.009,0.035,0.024,0.042
,-0.14,-0.07!,10,2
0.023,-0.027,0.008,0.018,0.008,0.035,0.023,0.043
,-0.12,-0.07!,10,2
0.023,-0.027,0.008,0.018,0.009,0.036,0.023,0.043
,-0.12,-0.06!,10,2
0.023,-0.027,0.009,0.018,0.009,0.035,0.024,0.042
,-0.12,-0.06!,10,2
0.023,-0.027,0.008,0.018,0.008,0.034,0.023,0.040
,-0.10,-0.06!,10,2
0.023,-0.027,0.008,0.018,0.008,0.034,0.023,0.040
,-0.10,-0.05!,10,2
0.023,-0.027,0.008,0.018,0.008,0.035,0.025,0.042
,-0.11,-0.07!,10,2
0.023,-0.027,0.008,0.020,0.008,0.035,0.025,0.042
,-0.12,-0.09!,10,2
0.023,-0.027,0.009,0.021,0.008,0.035,0.026,0.042
,-0.13,-0.09!,10,2
0.023,-0.027,0.009,0.020,0.008,0.034,0.027,0.042
,-0.13,-0.10!,10,2
0.023,-0.027,0.009,0.019,0.009,0.035,0.026,0.041
,-0.11,-0.10!,10,2
0.023,-0.027,0.009,0.019,0.009,0.035,0.027,0.041
,-0.10,-0.09!,10,2
0.023,-0.027,0.009,0.019,0.008,0.035,0.026,0.040
,-0.10,-0.08!,10,2
0.023,-0.027,0.008,0.019,0.009,0.036,0.026,0.040
,-0.11,-0.07!,10,2
0.023,-0.027,0.008,0.019,0.008,0.036,0.026,0.042
,-0.12,-0.07!,10,2
0.023,-0.027,0.008,0.020,0.008,0.036,0.027,0.042
,-0.13,-0.08!,10,2
0.023,-0.027,0.008,0.020,0.008,0.035,0.026,0.041
,-0.13,-0.08!,10,2
0.023,-0.027,0.009,0.018,0.007,0.035,0.027,0.041
,-0.11,-0.08!,10,2
0.023,-0.027,0.008,0.017,0.008,0.035,0.026,0.043
,-0.09,-0.08!,10,2
0.023,-0.027,0.009,0.017,0.009,0.035,0.026,0.043
,-0.09,-0.09!,10,2
0.023,-0.027,0.009,0.017,0.008,0.035,0.026,0.043
,-0.07,-0.09!,10,2
0.023,-0.027,0.008,0.016,0.009,0.036,0.025,0.043
,-0.07,-0.09!,10,2
0.023,-0.027,0.009,0.016,0.010,0.035,0.026,0.044
,-0.08,-0.09!,10,2
0.023,-0.027,0.009,0.015,0.010,0.035,0.026,0.044
,-0.08,-0.09!,10,2
0.023,-0.027,0.009,0.015,0.010,0.036,0.027,0.043
,-0.07,-0.10!,10,2
0.023,-0.027,0.009,0.013,0.011,0.036,0.027,0.042
,-0.05,-0.10!,10,2
0.023,-0.027,0.009,0.013,0.012,0.036,0.026,0.043
,-0.04,-0.10!,10,2
0.023,-0.027,0.008,0.012,0.013,0.035,0.025,0.043
,-0.04,-0.09!,10,2
0.023,-0.027,0.010,0.012,0.013,0.035,0.026,0.041
,-0.05,-0.09!,10,2
0.023,-0.027,0.009,0.012,0.012,0.035,0.026,0.041
,-0.06,-0.09!,10,2
0.023,-0.027,0.009,0.012,0.014,0.035,0.026,0.040
,-0.05,-0.09!,10,2
0.023,-0.027,0.009,0.012,0.014,0.035,0.027,0.040
,-0.05,-0.08!,10,2
0.023,-0.027,0.009,0.012,0.014,0.034,0.027,0.039
,-0.05,-0.09!,10,2
0.023,-0.027,0.009,0.013,0.014,0.034,0.026,0.040
,-0.05,-0.09!,10,2
0.023,-0.027,0.009,0.012,0.014,0.033,0.026,0.040
,-0.06,-0.10!,10,2
0.023,-0.027,0.010,0.013,0.015,0.033,0.025,0.041
,-0.05,-0.10!,10,2
0.023,-0.027,0.010,0.013,0.016,0.034,0.024,0.040
,-0.05,-0.09!,10,2
0.023,-0.027,0.010,0.012,0.015,0.035,0.024,0.041
,-0.04,-0.07!,10,2
0.023,-0.027,0.008,0.013,0.015,0.035,0.024,0.040
,-0.03,-0.06!,10,2
0.023,-0.027,0.007,0.013,0.015,0.036,0.024,0.041
,-0.05,-0.05!,10,2
0.023,-0.027,0.008,0.014,0.015,0.037,0.025,0.041
,-0.09,-0.05!,10,2
0.023,-0.027,0.008,0.014,0.015,0.037,0.024,0.041
,-0.10,-0.06!,10,2
0.023,-0.027,0.008,0.013,0.015,0.037,0.026,0.042
,-0.09,-0.07!,10,2
0.023,-0.027,0.008,0.012,0.015,0.039,0.027,0.041
,-0.08,-0.07!,10,2
0.023,-0.027,0.008,0.013,0.015,0.039,0.027,0.040
,-0.07,-0.06!,10,2
0.023,-0.027,0.007,0.012,0.015,0.039,0.027,0.039
,-0.07,-0.05!,10,2
0.023,-0.027,0.007,0.012,0.014,0.039,0.027,0.040
,-0.08,-0.05!,10,2
0.023,-0.027,0.007,0.012,0.014,0.040,0.027,0.039
,-0.08,-0.05!,10,2
0.023,-0.027,0.007,0.012,0.014,0.039,0.027,0.040
,-0.08,-0.05!,10,2
0.023,-0.027,0.008,0.012,0.014,0.039,0.028,0.040
,-0.07,-0.05!,10,2
0.023,-0.027,0.009,0.012,0.013,0.039,0.028,0.040
,-0.06,-0.06!,10,2
0.023,-0.027,0.009,0.012,0.014,0.038,0.028,0.041
,-0.05,-0.07!,10,2
0.023,-0.027,0.009,0.012,0.015,0.038,0.026,0.042
,-0.04,-0.07!,10,2
0.023,-0.027,0.009,0.012,0.015,0.038,0.027,0.042
,-0.05,-0.06!,10,2
0.023,-0.027,0.009,0.012,0.015,0.036,0.026,0.043
,-0.05,-0.06!,10,2
0.023,-0.027,0.009,0.012,0.014,0.036,0.026,0.044
,-0.05,-0.06!,10,2
0.023,-0.027,0.009,0.013,0.014,0.035,0.027,0.044
,-0.05,-0.08!,10,2
0.023,-0.027,0.009,0.013,0.014,0.035,0.027,0.044
,-0.05,-0.10!,10,2
0.023,-0.027,0.010,0.013,0.014,0.034,0.028,0.043
,-0.05,-0.11!,10,2
0.023,-0.027,0.010,0.013,0.014,0.033,0.027,0.044
,-0.05,-0.13!,10,2
0.023,-0.027,0.009,0.013,0.014,0.033,0.027,0.044
,-0.04,-0.14!,10,2
0.023,-0.027,0.009,0.013,0.014,0.032,0.026,0.043
,-0.04,-0.14!,10,2
0.023,-0.027,0.009,0.012,0.014,0.032,0.026,0.042
,-0.05,-0.13!,10,2
0.023,-0.027,0.009,0.012,0.013,0.031,0.025,0.043
,-0.05,-0.13!,10,2
0.023,-0.027,0.009,0.012,0.013,0.032,0.026,0.042
,-0.05,-0.13!,10,2
0.023,-0.027,0.009,0.012,0.013,0.034,0.026,0.040
,-0.04,-0.12!,10,2
0.023,-0.027,0.010,0.012,0.013,0.033,0.025,0.039
,-0.04,-0.10!,10,2
0.023,-0.027,0.010,0.012,0.014,0.033,0.025,0.039
,-0.03,-0.08!,10,2
0.023,-0.027,0.010,0.012,0.014,0.034,0.024,0.041
,-0.03,-0.08!,10,2
0.023,-0.027,0.010,0.015,0.014,0.033,0.023,0.041
,-0.04,-0.08!,10,2
0.023,-0.027,0.010,0.017,0.013,0.033,0.024,0.040
,-0.06,-0.09!,10,2
0.023,-0.027,0.010,0.019,0.013,0.034,0.025,0.040
,-0.08,-0.08!,10,2
0.023,-0.027,0.009,0.021,0.014,0.034,0.025,0.040
,-0.11,-0.08!,10,2
0.023,-0.027,0.009,0.023,0.014,0.034,0.027,0.040
,-0.14,-0.08!,10,2
0.023,-0.027,0.009,0.024,0.014,0.034,0.026,0.041
,-0.17,-0.08!,10,2
0.023,-0.027,0.010,0.026,0.014,0.034,0.027,0.042
,-0.18,-0.09!,10,2
0.023,-0.027,0.010,0.027,0.013,0.035,0.027,0.044
,-0.19,-0.10!,10,2
0.023,-0.027,0.011,0.028,0.013,0.036,0.027,0.044
,-0.18,-0.11!,10,2
0.023,-0.027,0.010,0.029,0.013,0.035,0.027,0.041
,-0.18,-0.10!,10,2
0.023,-0.027,0.010,0.029,0.013,0.035,0.027,0.041
,-0.19,-0.09!,10,2
0.023,-0.027,0.010,0.029,0.013,0.035,0.026,0.042
,-0.21,-0.09!,10,2
0.023,-0.027,0.010,0.029,0.012,0.035,0.029,0.042
,-0.21,-0.09!,10,2
0.023,-0.027,0.010,0.030,0.011,0.034,0.029,0.042
,-0.21,-0.10!,10,2
0.023,-0.027,0.013,0.030,0.011,0.036,0.027,0.040
,-0.19,-0.11!,10,2
0.023,-0.027,0.013,0.030,0.011,0.036,0.027,0.043
,-0.16,-0.11!,10,2
0.023,-0.027,0.013,0.029,0.011,0.037,0.027,0.043
,-0.15,-0.09!,10,2
0.023,-0.027,0.012,0.030,0.011,0.036,0.027,0.040
,-0.15,-0.08!,10,2
0.023,-0.027,0.011,0.030,0.010,0.036,0.027,0.040
,-0.17,-0.08!,10,2
0.023,-0.027,0.011,0.030,0.009,0.036,0.027,0.042
,-0.19,-0.08!,10,2
0.023,-0.027,0.012,0.030,0.008,0.037,0.026,0.041
,-0.19,-0.09!,10,2
0.023,-0.027,0.012,0.029,0.008,0.038,0.027,0.042
,-0.17,-0.09!,10,2
0.023,-0.027,0.012,0.030,0.008,0.038,0.024,0.042
,-0.17,-0.08!,10,2
0.023,-0.027,0.012,0.029,0.008,0.039,0.024,0.043
,-0.17,-0.07!,10,2
0.023,-0.027,0.011,0.028,0.007,0.038,0.024,0.043
,-0.17,-0.05!,10,2
0.023,-0.027,0.010,0.028,0.008,0.038,0.024,0.041
,-0.17,-0.04!,10,2
0.023,-0.027,0.010,0.028,0.008,0.036,0.024,0.041
,-0.17,-0.04!,10,2
0.023,-0.027,0.010,0.028,0.008,0.037,0.023,0.041
,-0.18,-0.05!,10,2
0.023,-0.027,0.010,0.028,0.008,0.037,0.022,0.042
,-0.18,-0.04!,10,2
0.023,-0.027,0.010,0.027,0.008,0.038,0.025,0.041
,-0.18,-0.05!,10,2
0.023,-0.027,0.010,0.028,0.008,0.037,0.025,0.042
,-0.18,-0.06!,10,2
0.023,-0.027,0.010,0.028,0.009,0.037,0.024,0.041
,-0.19,-0.06!,10,2
0.023,-0.027,0.010,0.028,0.009,0.037,0.023,0.042
,-0.19,-0.05!,10,2
0.023,-0.027,0.010,0.028,0.009,0.036,0.023,0.041
,-0.19,-0.04!,10,2
0.023,-0.027,0.008,0.029,0.009,0.036,0.022,0.041
,-0.20,-0.04!,10,2
0.023,-0.027,0.008,0.029,0.008,0.035,0.024,0.041
,-0.23,-0.05!,10,2
0.023,-0.027,0.008,0.029,0.007,0.036,0.023,0.041
,-0.24,-0.06!,10,2
0.023,-0.027,0.008,0.029,0.007,0.034,0.024,0.041
,-0.23,-0.06!,10,2
0.023,-0.027,0.008,0.029,0.007,0.035,0.025,0.041
,-0.22,-0.06!,10,2
0.023,-0.027,0.008,0.029,0.008,0.035,0.023,0.041
,-0.22,-0.06!,10,2
0.023,-0.027,0.009,0.029,0.008,0.035,0.023,0.041
,-0.22,-0.05!,10,2
0.023,-0.027,0.008,0.029,0.007,0.033,0.023,0.041
,-0.21,-0.05!,10,2
0.023,-0.027,0.008,0.029,0.008,0.034,0.024,0.040
,-0.20,-0.05!,10,2
0.023,-0.027,0.008,0.029,0.008,0.035,0.025,0.041
,-0.22,-0.07!,10,2
0.023,-0.027,0.008,0.028,0.008,0.035,0.026,0.041
,-0.22,-0.08!,10,2
0.023,-0.027,0.007,0.028,0.008,0.036,0.025,0.041
,-0.21,-0.08!,10,2
0.023,-0.027,0.009,0.028,0.009,0.035,0.025,0.041
,-0.20,-0.08!,10,2
0.023,-0.027,0.009,0.028,0.008,0.035,0.024,0.042
,-0.19,-0.07!,10,2
0.023,-0.027,0.009,0.028,0.009,0.036,0.024,0.043
,-0.19,-0.06!,10,2
0.023,-0.027,0.009,0.028,0.009,0.035,0.024,0.042
,-0.19,-0.06!,10,2
0.023,-0.027,0.008,0.028,0.009,0.036,0.025,0.041
,-0.21,-0.05!,10,2
0.023,-0.027,0.008,0.027,0.009,0.036,0.025,0.042
,-0.22,-0.06!,10,2
0.023,-0.027,0.009,0.025,0.009,0.035,0.024,0.040
,-0.20,-0.07!,10,2
0.023,-0.027,0.009,0.024,0.009,0.034,0.024,0.040
,-0.17,-0.08!,10,2
0.023,-0.027,0.010,0.023,0.008,0.034,0.023,0.041
,-0.14,-0.07!,10,2
0.023,-0.027,0.010,0.021,0.009,0.033,0.024,0.040
,-0.12,-0.07!,10,2
0.023,-0.027,0.009,0.020,0.010,0.034,0.024,0.040
,-0.12,-0.07!,10,2
0.023,-0.027,0.009,0.018,0.010,0.034,0.025,0.038
,-0.12,-0.07!,10,2
0.023,-0.027,0.009,0.015,0.010,0.034,0.025,0.040
,-0.10,-0.08!,10,2
0.023,-0.027,0.009,0.013,0.010,0.034,0.027,0.040
,-0.06,-0.09!,10,2
0.023,-0.027,0.009,0.010,0.010,0.034,0.026,0.040
,-0.03,-0.11!,10,2
0.023,-0.027,0.009,0.010,0.010,0.035,0.026,0.040
,-0.04,-0.11!,10,2
0.023,-0.027,0.010,0.010,0.009,0.035,0.026,0.042
,-0.09,-0.10!,10,2
0.023,-0.027,0.010,0.009,0.011,0.035,0.026,0.041
,-0.10,-0.09!,10,2
0.023,-0.027,0.009,0.008,0.012,0.036,0.026,0.040
,-0.10,-0.08!,10,2
0.023,-0.027,0.009,0.008,0.012,0.036,0.026,0.041
,-0.09,-0.08!,10,2
0.023,-0.027,0.009,0.009,0.013,0.035,0.027,0.042
,-0.09,-0.08!,10,2
0.023,-0.027,0.009,0.008,0.012,0.037,0.025,0.042
,-0.09,-0.08!,10,2
0.023,-0.027,0.009,0.009,0.013,0.035,0.026,0.041
,-0.09,-0.08!,10,2
0.023,-0.027,0.009,0.010,0.013,0.036,0.025,0.041
,-0.10,-0.08!,10,2
0.023,-0.027,0.009,0.010,0.012,0.036,0.025,0.042
,-0.12,-0.07!,10,2
0.023,-0.027,0.009,0.010,0.013,0.036,0.025,0.044
,-0.13,-0.07!,10,2
0.023,-0.027,0.009,0.010,0.013,0.036,0.026,0.043
,-0.14,-0.07!,10,2
0.023,-0.027,0.009,0.010,0.012,0.036,0.026,0.043
,-0.13,-0.08!,10,2
0.023,-0.027,0.009,0.010,0.013,0.035,0.026,0.044
,-0.13,-0.09!,10,2
0.023,-0.027,0.009,0.010,0.012,0.035,0.025,0.043
,-0.13,-0.09!,10,2
0.023,-0.027,0.009,0.010,0.010,0.036,0.025,0.041
,-0.13,-0.08!,10,2
0.023,-0.027,0.009,0.010,0.010,0.036,0.025,0.042
,-0.12,-0.07!,10,2
0.023,-0.027,0.009,0.010,0.009,0.036,0.025,0.043
,-0.12,-0.07!,10,2
0.023,-0.027,0.010,0.010,0.010,0.036,0.025,0.042
,-0.12,-0.07!,10,2
0.023,-0.027,0.011,0.010,0.010,0.036,0.025,0.042
,-0.11,-0.07!,10,2
0.023,-0.027,0.009,0.009,0.011,0.035,0.026,0.040
,-0.08,-0.07!,10,2
0.023,-0.027,0.008,0.009,0.012,0.035,0.026,0.040
,-0.09,-0.08!,10,2
0.023,-0.027,0.009,0.009,0.012,0.035,0.026,0.041
,-0.11,-0.09!,10,2
0.023,-0.027,0.009,0.008,0.010,0.035,0.026,0.041
,-0.11,-0.09!,10,2
0.023,-0.027,0.009,0.009,0.012,0.036,0.026,0.041
,-0.10,-0.09!,10,2
0.023,-0.027,0.009,0.008,0.012,0.035,0.025,0.041
,-0.10,-0.09!,10,2
0.023,-0.027,0.010,0.009,0.012,0.034,0.025,0.042
,-0.09,-0.09!,10,2
0.023,-0.027,0.010,0.009,0.012,0.034,0.024,0.042
,-0.09,-0.09!,10,2
0.023,-0.027,0.010,0.008,0.013,0.035,0.025,0.042
,-0.09,-0.09!,10,2
0.023,-0.027,0.009,0.008,0.013,0.034,0.026,0.041
,-0.08,-0.09!,10,2
0.023,-0.027,0.009,0.008,0.013,0.034,0.024,0.042
,-0.09,-0.09!,10,2
0.023,-0.027,0.009,0.008,0.012,0.035,0.023,0.041
,-0.09,-0.07!,10,2
0.023,-0.027,0.009,0.009,0.012,0.035,0.024,0.041
,-0.09,-0.06!,10,2
0.023,-0.027,0.009,0.010,0.012,0.035,0.025,0.040
,-0.10,-0.06!,10,2
0.023,-0.027,0.010,0.009,0.011,0.034,0.024,0.040
,-0.08,-0.06!,10,2
0.023,-0.027,0.010,0.009,0.010,0.035,0.024,0.041
,-0.02,-0.06!,10,2
0.023,-0.027,0.009,0.009,0.010,0.036,0.024,0.041
,-0.01,-0.06!,10,2
0.023,-0.027,0.009,0.008,0.010,0.036,0.024,0.039
,-0.06,-0.06!,10,2
0.023,-0.027,0.008,0.008,0.010,0.036,0.023,0.039
,-0.08,-0.05!,10,2
0.023,-0.027,0.008,0.009,0.010,0.036,0.023,0.039
,-0.09,-0.04!,10,2
0.023,-0.027,0.008,0.010,0.009,0.037,0.023,0.040
,-0.11,-0.04!,10,2
0.023,-0.027,0.008,0.010,0.009,0.037,0.023,0.040
,-0.09,-0.04!,10,2
0.023,-0.027,0.008,0.008,0.009,0.037,0.024,0.041
,-0.03,-0.04!,10,2
0.023,-0.027,0.008,0.009,0.009,0.037,0.024,0.041
,-0.02,-0.05!,10,2
0.023,-0.027,0.007,0.010,0.008,0.037,0.024,0.041
,-0.08,-0.05!,10,2
0.023,-0.027,0.007,0.010,0.009,0.035,0.024,0.040
,-0.09,-0.06!,10,2
0.023,-0.027,0.007,0.010,0.010,0.034,0.023,0.040
,-0.05,-0.06!,10,2
0.023,-0.027,0.007,0.010,0.011,0.034,0.024,0.041
,-0.04,-0.06!,10,2
0.023,-0.027,0.007,0.012,0.010,0.034,0.024,0.041
,-0.04,-0.06!,10,2
0.023,-0.027,0.008,0.011,0.010,0.034,0.024,0.041
,-0.05,-0.07!,10,2
0.023,-0.027,0.007,0.011,0.010,0.034,0.024,0.040
,-0.04,-0.07!,10,2
0.023,-0.027,0.008,0.013,0.010,0.033,0.026,0.040
,-0.03,-0.08!,10,2
0.023,-0.027,0.008,0.013,0.011,0.033,0.025,0.038
,-0.04,-0.08!,10,2
0.023,-0.027,0.008,0.012,0.011,0.034,0.024,0.039
,-0.05,-0.08!,10,2
0.023,-0.027,0.008,0.012,0.011,0.033,0.024,0.039
,-0.06,-0.07!,10,2
0.023,-0.027,0.007,0.012,0.010,0.034,0.024,0.038
,-0.06,-0.06!,10,2
0.023,-0.027,0.007,0.012,0.010,0.034,0.025,0.038
,-0.07,-0.07!,10,2
0.023,-0.027,0.007,0.013,0.009,0.035,0.024,0.038
,-0.07,-0.07!,10,2
0.023,-0.027,0.008,0.012,0.009,0.034,0.025,0.037
,-0.06,-0.07!,10,2
0.023,-0.027,0.008,0.012,0.009,0.034,0.026,0.037
,-0.05,-0.07!,10,2
0.023,-0.027,0.008,0.012,0.010,0.033,0.025,0.037
,-0.04,-0.07!,10,2
0.023,-0.027,0.008,0.010,0.010,0.034,0.024,0.039
,-0.04,-0.07!,10,2
0.023,-0.027,0.008,0.010,0.008,0.033,0.024,0.040
,-0.03,-0.07!,10,2
0.023,-0.027,0.007,0.010,0.008,0.033,0.024,0.039
,-0.02,-0.07!,10,2
0.023,-0.027,0.007,0.010,0.009,0.034,0.024,0.040
,-0.03,-0.08!,10,2
0.023,-0.027,0.007,0.010,0.009,0.034,0.024,0.041
,-0.04,-0.08!,10,2
0.023,-0.027,0.008,0.011,0.010,0.033,0.023,0.043
,-0.04,-0.07!,10,2
0.023,-0.027,0.008,0.011,0.009,0.033,0.025,0.042
,-0.05,-0.07!,10,2
0.023,-0.027,0.006,0.011,0.010,0.033,0.024,0.042
,-0.04,-0.08!,10,2
0.023,-0.027,0.006,0.010,0.010,0.033,0.024,0.043
,-0.05,-0.08!,10,2
0.023,-0.027,0.006,0.011,0.010,0.032,0.025,0.042
,-0.06,-0.09!,10,2
0.023,-0.027,0.007,0.011,0.010,0.033,0.024,0.041
,-0.06,-0.10!,10,2
0.023,-0.027,0.007,0.011,0.010,0.033,0.025,0.042
,-0.05,-0.10!,10,2
0.023,-0.027,0.007,0.011,0.011,0.033,0.025,0.042
,-0.05,-0.10!,10,2
0.023,-0.027,0.007,0.011,0.010,0.034,0.025,0.042
,-0.05,-0.10!,10,2
0.023,-0.027,0.009,0.012,0.011,0.033,0.025,0.041
,-0.03,-0.10!,10,2
0.023,-0.027,0.009,0.011,0.010,0.033,0.026,0.040
,-0.01,-0.10!,10,2
0.023,-0.027,0.009,0.011,0.011,0.033,0.025,0.040
,-0.00,-0.11!,10,2
0.023,-0.027,0.009,0.011,0.012,0.035,0.025,0.040
,-0.01,-0.10!,10,2
0.023,-0.027,0.009,0.011,0.013,0.035,0.025,0.041
,-0.02,-0.09!,10,2
0.023,-0.027,0.009,0.011,0.013,0.035,0.022,0.040
,-0.03,-0.06!,10,2
0.023,-0.027,0.009,0.011,0.013,0.035,0.025,0.042
,-0.03,-0.03!,10,2
0.023,-0.027,0.008,0.012,0.013,0.035,0.025,0.041
,-0.04,-0.04!,10,2
0.023,-0.027,0.009,0.011,0.013,0.035,0.026,0.040
,-0.04,-0.06!,10,2
0.023,-0.027,0.010,0.012,0.013,0.034,0.025,0.041
,-0.04,-0.08!,10,2
0.023,-0.027,0.008,0.011,0.013,0.034,0.026,0.042
,-0.05,-0.08!,10,2
0.023,-0.027,0.008,0.011,0.014,0.035,0.025,0.042
,-0.07,-0.08!,10,2
0.023,-0.027,0.008,0.011,0.014,0.036,0.025,0.042
,-0.07,-0.08!,10,2
0.023,-0.027,0.008,0.012,0.013,0.034,0.025,0.042
,-0.06,-0.07!,10,2
0.023,-0.027,0.008,0.012,0.013,0.035,0.026,0.043
,-0.06,-0.07!,10,2
0.023,-0.027,0.009,0.012,0.012,0.037,0.027,0.043
,-0.06,-0.08!,10,2
0.023,-0.027,0.010,0.013,0.012,0.036,0.027,0.042
,-0.04,-0.10!,10,2
0.023,-0.027,0.011,0.012,0.012,0.035,0.026,0.043
,-0.02,-0.10!,10,2
0.023,-0.027,0.011,0.011,0.012,0.035,0.027,0.045
,-0.01,-0.09!,10,2
0.023,-0.027,0.011,0.011,0.012,0.036,0.026,0.043
,0.00,-0.09!,10,2
0.023,-0.027,0.011,0.011,0.012,0.036,0.026,0.043
,0.01,-0.08!,10,2
0.023,-0.027,0.011,0.012,0.010,0.036,0.026,0.042
,0.01,-0.08!,10,2
0.023,-0.027,0.011,0.014,0.010,0.035,0.027,0.043
,0.01,-0.08!,10,2
0.023,-0.027,0.011,0.015,0.009,0.037,0.027,0.044
,-0.01,-0.10!,10,2
0.023,-0.027,0.011,0.017,0.009,0.035,0.026,0.042
,-0.02,-0.11!,10,2
0.023,-0.027,0.012,0.018,0.009,0.034,0.025,0.043
,-0.04,-0.11!,10,2
0.023,-0.027,0.012,0.019,0.009,0.034,0.024,0.044
,-0.06,-0.10!,10,2
0.023,-0.028,0.011,0.019,0.008,0.034,0.025,0.044
,-0.05,-0.09!,10,2
0.023,-0.028,0.011,0.021,0.009,0.034,0.025,0.043
,-0.06,-0.10!,10,2
0.023,-0.028,0.011,0.021,0.008,0.033,0.025,0.043
,-0.07,-0.10!,10,2
0.023,-0.028,0.011,0.022,0.008,0.034,0.025,0.044
,-0.09,-0.09!,10,2
0.023,-0.028,0.011,0.022,0.008,0.034,0.026,0.044
,-0.10,-0.10!,10,2
0.023,-0.028,0.011,0.022,0.008,0.033,0.026,0.043
,-0.10,-0.11!,10,2
0.023,-0.028,0.011,0.022,0.008,0.033,0.026,0.042
,-0.11,-0.12!,10,2
0.023,-0.028,0.012,0.022,0.008,0.033,0.025,0.042
,-0.10,-0.12!,10,2
0.023,-0.028,0.011,0.021,0.008,0.032,0.025,0.043
,-0.08,-0.11!,10,2
0.023,-0.027,0.010,0.021,0.009,0.032,0.025,0.041
,-0.08,-0.11!,10,2
0.023,-0.027,0.010,0.021,0.009,0.033,0.025,0.041
,-0.10,-0.11!,10,2
0.023,-0.027,0.011,0.021,0.008,0.032,0.025,0.041
,-0.11,-0.11!,10,2
0.023,-0.028,0.011,0.020,0.008,0.034,0.026,0.041
,-0.09,-0.12!,10,2
0.023,-0.028,0.011,0.021,0.009,0.033,0.025,0.041
,-0.08,-0.12!,10,2
0.023,-0.028,0.011,0.021,0.008,0.033,0.025,0.041
,-0.08,-0.11!,10,2
0.023,-0.027,0.011,0.021,0.009,0.033,0.025,0.041
,-0.09,-0.10!,10,2
0.023,-0.027,0.011,0.020,0.009,0.033,0.025,0.042
,-0.09,-0.10!,10,2
0.023,-0.028,0.010,0.021,0.009,0.034,0.025,0.042
,-0.09,-0.10!,10,2
0.023,-0.028,0.010,0.022,0.009,0.034,0.025,0.040
,-0.11,0.17!,10,2
0.023,-0.027,0.011,0.022,0.007,0.034,0.025,0.039
,-0.12,0.32!,10,2
0.023,-0.027,0.011,0.022,0.008,0.033,0.024,0.040
,-0.11,-0.17!,10,2
0.023,-0.028,0.009,0.022,0.008,0.033,0.025,0.039
,-0.12,-0.48!,10,2
0.023,-0.027,0.010,0.022,0.008,0.033,0.025,0.038
,-0.14,-0.03!,10,2
0.023,-0.028,0.010,0.022,0.007,0.033,0.025,0.038
,-0.14,0.29!,10,2
0.023,-0.027,0.009,0.021,0.007,0.033,0.024,0.038
,-0.13,0.11!,10,2
0.023,-0.027,0.009,0.021,0.007,0.033,0.025,0.039
,-0.11,-0.07!,10,2
0.023,-0.027,0.009,0.021,0.007,0.034,0.024,0.039
,-0.12,-0.13!,10,2
0.023,-0.027,0.009,0.021,0.007,0.035,0.024,0.039
,-0.12,-0.11!,10,2
0.023,-0.027,0.009,0.020,0.007,0.036,0.024,0.041
,-0.12,-0.07!,10,2
0.023,-0.027,0.009,0.020,0.008,0.036,0.024,0.042
,-0.11,-0.05!,10,2
0.023,-0.027,0.009,0.021,0.007,0.036,0.024,0.041
,-0.11,-0.05!,10,2
0.023,-0.027,0.009,0.021,0.009,0.038,0.022,0.041
,-0.12,-0.05!,10,2
0.023,-0.027,0.009,0.021,0.009,0.038,0.022,0.041
,-0.13,-0.03!,10,2
0.023,-0.027,0.010,0.021,0.009,0.038,0.024,0.041
,-0.13,-0.02!,10,2
0.023,-0.027,0.010,0.021,0.009,0.038,0.025,0.041
,-0.11,-0.04!,10,2
0.023,-0.027,0.010,0.021,0.011,0.037,0.023,0.040
,-0.11,-0.03!,10,2
0.023,-0.027,0.010,0.021,0.011,0.037,0.024,0.039
,-0.12,-0.02!,10,2
0.023,-0.027,0.010,0.021,0.011,0.036,0.025,0.039
,-0.12,-0.03!,10,2
0.023,-0.027,0.009,0.022,0.011,0.036,0.025,0.038
,-0.13,-0.05!,10,2
0.023,-0.027,0.009,0.022,0.010,0.035,0.025,0.039
,-0.14,-0.06!,10,2
0.023,-0.027,0.010,0.022,0.011,0.035,0.025,0.038
,-0.16,-0.07!,10,2
0.023,-0.027,0.010,0.022,0.010,0.034,0.025,0.039
,-0.15,-0.07!,10,2
0.023,-0.027,0.010,0.022,0.010,0.033,0.026,0.039
,-0.14,-0.08!,10,2
0.023,-0.027,0.009,0.022,0.010,0.034,0.025,0.040
,-0.14,-0.09!,10,2
0.023,-0.027,0.010,0.021,0.010,0.034,0.024,0.040
,-0.15,-0.09!,10,2
0.023,-0.027,0.009,0.021,0.009,0.035,0.025,0.040
,-0.14,-0.09!,10,2
0.023,-0.027,0.010,0.021,0.009,0.034,0.024,0.039
,-0.14,-0.09!,10,2
0.023,-0.027,0.010,0.020,0.009,0.033,0.023,0.038
,-0.13,-0.08!,10,2
0.023,-0.027,0.010,0.019,0.011,0.034,0.024,0.039
,-0.12,-0.06!,10,2
0.023,-0.027,0.011,0.019,0.011,0.034,0.024,0.039
,-0.09,-0.05!,10,2
0.023,-0.027,0.010,0.018,0.010,0.035,0.024,0.039
,-0.07,-0.06!,10,2
0.023,-0.027,0.010,0.018,0.010,0.034,0.023,0.039
,-0.06,-0.05!,10,2
0.023,-0.027,0.010,0.018,0.010,0.034,0.022,0.039
,-0.07,-0.05!,10,2
0.023,-0.027,0.010,0.017,0.010,0.035,0.022,0.039
,-0.08,-0.05!,10,2
0.023,-0.027,0.010,0.017,0.010,0.034,0.024,0.039
,-0.08,-0.05!,10,2
0.023,-0.027,0.010,0.017,0.009,0.034,0.023,0.040
,-0.08,-0.05!,10,2
0.023,-0.027,0.009,0.017,0.009,0.035,0.024,0.040
,-0.07,-0.05!,10,2
0.023,-0.027,0.010,0.017,0.009,0.035,0.024,0.040
,-0.07,-0.05!,10,2
0.023,-0.027,0.010,0.017,0.009,0.034,0.023,0.041
,-0.06,-0.06!,10,2
0.023,-0.027,0.009,0.018,0.008,0.035,0.023,0.040
,-0.07,-0.07!,10,2
0.023,-0.027,0.009,0.018,0.008,0.034,0.024,0.040
,-0.09,-0.07!,10,2
0.023,-0.027,0.009,0.019,0.008,0.033,0.024,0.040
,-0.10,-0.07!,10,2
0.023,-0.027,0.009,0.019,0.009,0.033,0.024,0.040
,-0.10,-0.08!,10,2
0.023,-0.027,0.009,0.020,0.009,0.033,0.024,0.039
,-0.11,-0.08!,10,2
0.023,-0.027,0.010,0.020,0.010,0.032,0.023,0.038
,-0.12,-0.08!,10,2
0.023,-0.027,0.010,0.020,0.011,0.031,0.024,0.038
,-0.12,-0.09!,10,2
0.023,-0.027,0.010,0.020,0.012,0.032,0.023,0.038
,-0.12,-0.09!,10,2
0.023,-0.027,0.010,0.020,0.013,0.034,0.023,0.040
,-0.12,-0.09!,10,2
0.023,-0.027,0.010,0.021,0.012,0.034,0.023,0.039
,-0.12,-0.08!,10,2
0.023,-0.027,0.010,0.020,0.012,0.034,0.024,0.038
,-0.13,-0.07!,10,2
0.023,-0.027,0.010,0.020,0.012,0.035,0.023,0.039
,-0.13,-0.06!,10,2
0.023,-0.027,0.011,0.019,0.012,0.036,0.024,0.038
,-0.11,-0.06!,10,2
0.023,-0.027,0.012,0.020,0.012,0.036,0.024,0.039
,-0.10,-0.05!,10,2
0.023,-0.027,0.011,0.019,0.012,0.036,0.023,0.040
,-0.10,-0.05!,10,2
0.023,-0.027,0.011,0.019,0.011,0.037,0.024,0.041
,-0.10,-0.04!,10,2
0.023,-0.027,0.010,0.019,0.011,0.037,0.024,0.042
,-0.10,-0.03!,10,2
0.023,-0.027,0.011,0.019,0.010,0.037,0.024,0.041
,-0.10,-0.04!,10,2
0.023,-0.027,0.012,0.019,0.009,0.035,0.025,0.040
,-0.09,-0.05!,10,2
0.023,-0.027,0.012,0.018,0.010,0.035,0.024,0.040
,-0.06,-0.06!,10,2
0.023,-0.027,0.012,0.018,0.009,0.034,0.024,0.041
,-0.04,-0.07!,10,2
0.023,-0.028,0.011,0.017,0.010,0.035,0.024,0.041
,-0.04,-0.07!,10,2
0.023,-0.027,0.010,0.018,0.010,0.034,0.024,0.041
,-0.05,0.19!,10,2
0.023,-0.028,0.010,0.018,0.011,0.034,0.024,0.040
,-0.07,0.33!,10,2
0.023,-0.027,0.010,0.018,0.011,0.034,0.024,0.041
,-0.09,0.09!,10,2
0.023,-0.028,0.010,0.018,0.010,0.035,0.023,0.041
,-0.09,-0.07!,10,2
0.023,-0.027,0.010,0.019,0.011,0.035,0.023,0.039
,-0.09,-0.10!,10,2
0.023,-0.027,0.010,0.019,0.011,0.035,0.023,0.041
,-0.09,-0.08!,10,2
0.023,-0.027,0.009,0.019,0.011,0.035,0.023,0.041
,-0.10,-0.06!,10,2
0.023,-0.027,0.009,0.020,0.011,0.035,0.024,0.042
,-0.13,-0.06!,10,2
0.023,-0.027,0.010,0.021,0.010,0.035,0.023,0.041
,-0.13,-0.07!,10,2
0.023,-0.028,0.010,0.022,0.010,0.033,0.023,0.042
,-0.13,-0.07!,10,2
0.023,-0.027,0.010,0.022,0.010,0.033,0.025,0.042
,-0.13,-0.07!,10,2
0.023,-0.028,0.010,0.022,0.009,0.033,0.026,0.041
,-0.13,-0.09!,10,2
0.023,-0.027,0.010,0.023,0.009,0.034,0.026,0.041
,-0.13,-0.10!,10,2
0.023,-0.028,0.011,0.023,0.009,0.032,0.026,0.041
,-0.13,-0.10!,10,2
0.023,-0.028,0.011,0.023,0.009,0.034,0.026,0.041
,-0.13,-0.10!,10,2
0.023,-0.027,0.010,0.023,0.009,0.034,0.026,0.040
,-0.13,-0.09!,10,2
0.023,-0.028,0.011,0.023,0.009,0.034,0.025,0.039
,-0.12,-0.35!,10,2
0.023,-0.027,0.011,0.024,0.008,0.034,0.026,0.040
,-0.12,-0.49!,10,2
0.023,-0.027,0.011,0.024,0.010,0.035,0.027,0.040
,-0.13,-0.25!,10,2
0.023,-0.027,0.010,0.024,0.009,0.036,0.026,0.040
,-0.13,-0.09!,10,2
0.023,-0.027,0.011,0.024,0.009,0.037,0.025,0.039
,-0.13,-0.04!,10,2
0.023,-0.028,0.011,0.025,0.010,0.038,0.023,0.040
,-0.14,-0.03!,10,2
0.023,-0.027,0.010,0.025,0.010,0.038,0.023,0.039
,-0.16,0.24!,10,2
0.023,-0.027,0.010,0.024,0.010,0.037,0.023,0.040
,-0.17,0.39!,10,2
0.023,-0.028,0.010,0.024,0.011,0.037,0.024,0.040
,-0.16,0.14!,10,2
0.023,-0.027,0.010,0.024,0.011,0.037,0.024,0.040
,-0.16,0.23!,10,2
0.023,-0.027,0.009,0.024,0.011,0.036,0.024,0.041
,-0.17,0.33!,10,2
0.023,-0.028,0.010,0.023,0.011,0.036,0.023,0.040
,-0.17,0.09!,10,2
0.023,-0.027,0.010,0.024,0.010,0.036,0.025,0.040
,-0.17,0.20!,10,2
0.023,-0.028,0.010,0.027,0.010,0.036,0.026,0.040
,-0.17,0.31!,10,2
0.023,-0.028,0.010,0.028,0.011,0.034,0.025,0.041
,-0.19,0.06!,10,2
0.023,-0.028,0.010,0.029,0.010,0.034,0.026,0.040
,-0.21,-0.11!,10,2
0.023,-0.028,0.010,0.030,0.011,0.034,0.027,0.042
,-0.22,-0.14!,10,2
0.023,-0.028,0.010,0.032,0.013,0.034,0.026,0.041
,-0.24,-0.12!,10,2
0.023,-0.027,0.010,0.033,0.011,0.034,0.027,0.041
,-0.27,-0.10!,10,2
0.023,-0.028,0.010,0.034,0.011,0.034,0.026,0.042
,-0.28,-0.09!,10,2
0.023,-0.028,0.010,0.034,0.011,0.035,0.027,0.042
,-0.29,-0.09!,10,2
0.023,-0.028,0.010,0.035,0.011,0.035,0.028,0.042
,-0.29,-0.10!,10,2
0.023,-0.027,0.010,0.035,0.011,0.035,0.026,0.041
,-0.29,-0.11!,10,2
0.023,-0.028,0.010,0.034,0.012,0.035,0.025,0.042
,-0.29,-0.11!,10,2
0.023,-0.028,0.010,0.033,0.013,0.037,0.025,0.042
,-0.28,-0.08!,10,2
0.023,-0.027,0.011,0.032,0.014,0.037,0.025,0.043
,-0.28,-0.06!,10,2
0.023,-0.028,0.011,0.031,0.013,0.036,0.024,0.042
,-0.26,-0.32!,10,2
0.023,-0.028,0.010,0.031,0.012,0.036,0.024,0.042
,-0.25,-0.47!,10,2
0.023,-0.027,0.010,0.030,0.012,0.037,0.022,0.043
,-0.24,-0.22!,10,2
0.023,-0.028,0.010,0.031,0.012,0.036,0.023,0.043
,-0.24,-0.30!,10,2
0.023,-0.027,0.010,0.031,0.012,0.037,0.022,0.042
,-0.25,-0.40!,10,2
0.023,-0.028,0.011,0.031,0.012,0.037,0.021,0.042
,-0.25,-0.17!,10,2
0.023,-0.027,0.011,0.030,0.013,0.037,0.021,0.044
,-0.24,-0.01!,10,2
0.023,-0.028,0.011,0.030,0.012,0.037,0.022,0.044
,-0.23,0.02!,10,2
0.023,-0.028,0.011,0.030,0.012,0.035,0.022,0.043
,-0.22,-0.02!,10,2
0.023,-0.028,0.011,0.031,0.011,0.034,0.021,0.043
,-0.22,-0.05!,10,2
0.023,-0.027,0.011,0.031,0.011,0.034,0.022,0.042
,-0.23,-0.05!,10,2
0.023,-0.027,0.011,0.030,0.011,0.035,0.023,0.043
,-0.22,-0.06!,10,2
0.023,-0.027,0.012,0.031,0.011,0.034,0.026,0.043
,-0.21,-0.07!,10,2
0.023,-0.028,0.012,0.030,0.011,0.035,0.025,0.043
,-0.19,-0.08!,10,2
0.023,-0.027,0.012,0.030,0.011,0.033,0.024,0.042
,-0.19,-0.10!,10,2
0.023,-0.027,0.012,0.030,0.011,0.032,0.024,0.043
,-0.19,-0.10!,10,2
0.023,-0.027,0.011,0.030,0.010,0.033,0.024,0.042
,-0.20,-0.10!,10,2
0.023,-0.028,0.011,0.030,0.010,0.032,0.024,0.042
,-0.22,-0.09!,10,2
0.023,-0.027,0.011,0.030,0.009,0.033,0.025,0.042
,-0.22,-0.09!,10,2
0.023,-0.027,0.011,0.030,0.009,0.034,0.025,0.042
,-0.21,-0.09!,10,2
0.023,-0.027,0.011,0.030,0.010,0.034,0.024,0.041
,-0.21,-0.09!,10,2
0.023,-0.028,0.010,0.030,0.010,0.033,0.024,0.041
,-0.21,-0.09!,10,2
0.023,-0.027,0.009,0.030,0.010,0.034,0.022,0.041
,-0.22,-0.08!,10,2
0.023,-0.027,0.010,0.029,0.010,0.034,0.024,0.040
,-0.24,-0.07!,10,2
0.023,-0.027,0.009,0.029,0.011,0.034,0.025,0.041
,-0.24,-0.08!,10,2
0.023,-0.027,0.009,0.028,0.011,0.034,0.025,0.042
,-0.24,-0.08!,10,2
0.023,-0.027,0.008,0.028,0.010,0.034,0.025,0.041
,-0.24,-0.09!,10,2
0.023,-0.027,0.007,0.027,0.010,0.035,0.024,0.040
,-0.24,-0.08!,10,2
0.023,-0.027,0.007,0.027,0.010,0.034,0.023,0.040
,-0.24,-0.07!,10,2
0.023,-0.027,0.008,0.027,0.011,0.033,0.025,0.040
,-0.24,-0.08!,10,2
0.023,-0.027,0.007,0.027,0.010,0.034,0.024,0.041
,-0.25,-0.09!,10,2
0.023,-0.027,0.009,0.027,0.011,0.034,0.024,0.041
,-0.26,-0.09!,10,2
0.023,-0.027,0.009,0.026,0.011,0.033,0.026,0.041
,-0.25,-0.08!,10,2
0.023,-0.027,0.007,0.026,0.011,0.034,0.024,0.041
,-0.22,-0.08!,10,2
0.023,-0.027,0.007,0.026,0.011,0.035,0.025,0.041
,-0.22,-0.07!,10,2
0.023,-0.027,0.007,0.027,0.011,0.034,0.025,0.040
,-0.23,-0.06!,10,2
0.023,-0.027,0.008,0.028,0.011,0.034,0.026,0.040
,-0.24,-0.07!,10,2
0.023,-0.027,0.008,0.028,0.011,0.035,0.028,0.041
,-0.24,-0.09!,10,2
0.023,-0.027,0.008,0.029,0.012,0.035,0.028,0.041
,-0.24,-0.12!,10,2
0.023,-0.027,0.008,0.029,0.011,0.035,0.027,0.042
,-0.25,-0.12!,10,2
0.023,-0.027,0.008,0.029,0.012,0.035,0.028,0.041
,-0.25,-0.11!,10,2
0.023,-0.027,0.007,0.029,0.012,0.036,0.028,0.041
,-0.26,-0.10!,10,2
0.023,-0.027,0.008,0.030,0.013,0.037,0.026,0.041
,-0.26,-0.10!,10,2
0.023,-0.027,0.008,0.030,0.012,0.037,0.027,0.042
,-0.26,-0.09!,10,2
0.023,-0.027,0.008,0.029,0.012,0.036,0.027,0.042
,-0.27,-0.09!,10,2
0.023,-0.027,0.008,0.029,0.012,0.037,0.027,0.042
,-0.27,-0.10!,10,2
0.023,-0.027,0.008,0.028,0.013,0.036,0.026,0.043
,-0.26,-0.10!,10,2
0.023,-0.027,0.009,0.028,0.013,0.035,0.024,0.043
,-0.26,-0.09!,10,2
0.023,-0.027,0.009,0.026,0.012,0.035,0.024,0.043
,-0.25,-0.07!,10,2
0.023,-0.027,0.008,0.025,0.012,0.035,0.025,0.042
,-0.22,-0.07!,10,2
0.023,-0.027,0.008,0.025,0.011,0.036,0.025,0.042
,-0.20,-0.07!,10,2
0.023,-0.027,0.008,0.024,0.011,0.034,0.025,0.042
,-0.20,-0.07!,10,2
0.023,-0.027,0.008,0.024,0.011,0.034,0.025,0.042
,-0.19,-0.08!,10,2
0.023,-0.027,0.009,0.024,0.011,0.034,0.024,0.042
,-0.19,-0.08!,10,2
0.023,-0.027,0.009,0.024,0.011,0.034,0.023,0.041
,-0.19,-0.08!,10,2
0.023,-0.027,0.008,0.024,0.011,0.034,0.023,0.042
,-0.18,-0.07!,10,2
0.023,-0.027,0.008,0.024,0.012,0.034,0.023,0.041
,-0.18,-0.07!,10,2
0.023,-0.027,0.008,0.025,0.011,0.034,0.023,0.040
,-0.20,-0.07!,10,2
0.023,-0.027,0.008,0.026,0.011,0.034,0.023,0.039
,-0.21,-0.06!,10,2
0.023,-0.027,0.007,0.026,0.011,0.034,0.023,0.040
,-0.22,-0.06!,10,2
0.023,-0.027,0.008,0.027,0.011,0.033,0.023,0.039
,-0.22,-0.07!,10,2
0.023,-0.027,0.009,0.027,0.010,0.034,0.023,0.039
,-0.22,-0.07!,10,2
0.023,-0.027,0.009,0.027,0.011,0.034,0.023,0.039
,-0.22,-0.07!,10,2
0.023,-0.027,0.009,0.027,0.012,0.034,0.023,0.041
,-0.21,-0.07!,10,2
0.023,-0.027,0.009,0.027,0.012,0.035,0.022,0.039
,-0.22,-0.06!,10,2
0.023,-0.027,0.009,0.027,0.012,0.035,0.022,0.040
,-0.22,-0.05!,10,2
0.023,-0.027,0.009,0.028,0.012,0.034,0.023,0.039
,-0.22,-0.05!,10,2
0.023,-0.027,0.008,0.028,0.012,0.036,0.022,0.041
,-0.22,-0.05!,10,2
0.023,-0.027,0.009,0.027,0.012,0.035,0.023,0.042
,-0.23,-0.05!,10,2
0.023,-0.027,0.008,0.027,0.012,0.036,0.024,0.041
,-0.22,-0.06!,10,2
0.023,-0.027,0.010,0.027,0.012,0.036,0.024,0.041
,-0.21,-0.06!,10,2
0.023,-0.027,0.009,0.027,0.012,0.036,0.024,0.044
,-0.19,-0.07!,10,2
0.023,-0.027,0.009,0.027,0.012,0.035,0.023,0.042
,-0.20,-0.07!,10,2
0.023,-0.028,0.009,0.027,0.010,0.034,0.023,0.041
,-0.21,-0.07!,10,2
0.023,-0.027,0.009,0.027,0.010,0.035,0.023,0.041
,-0.21,-0.06!,10,2
0.023,-0.027,0.009,0.027,0.010,0.035,0.024,0.041
,-0.21,-0.06!,10,2
0.023,-0.027,0.010,0.027,0.009,0.036,0.025,0.041
,-0.20,-0.06!,10,2
0.023,-0.027,0.010,0.026,0.010,0.034,0.025,0.040
,-0.19,-0.06!,10,2
0.023,-0.027,0.011,0.026,0.010,0.035,0.024,0.040
,-0.17,-0.06!,10,2
0.023,-0.027,0.012,0.026,0.010,0.035,0.023,0.041
,-0.16,-0.06!,10,2
0.023,-0.027,0.010,0.027,0.010,0.034,0.023,0.041
,-0.17,-0.06!,10,2
0.023,-0.027,0.010,0.027,0.010,0.035,0.024,0.039
,-0.19,-0.07!,10,2
0.023,-0.027,0.009,0.026,0.009,0.035,0.025,0.040
,-0.21,-0.07!,10,2
0.023,-0.027,0.010,0.027,0.011,0.035,0.025,0.039
,-0.22,-0.07!,10,2
0.023,-0.027,0.010,0.027,0.010,0.035,0.026,0.040
,-0.22,-0.07!,10,2
0.023,-0.027,0.010,0.027,0.011,0.035,0.025,0.040
,-0.21,-0.07!,10,2
0.023,-0.027,0.010,0.027,0.011,0.035,0.024,0.041
,-0.20,-0.07!,10,2
0.023,-0.027,0.009,0.027,0.013,0.035,0.025,0.042
,-0.20,-0.08!,10,2
0.023,-0.027,0.009,0.027,0.013,0.035,0.025,0.042
,-0.21,-0.08!,10,2
0.023,-0.027,0.008,0.027,0.013,0.035,0.025,0.042
,-0.22,-0.09!,10,2
0.023,-0.027,0.008,0.027,0.013,0.035,0.025,0.042
,-0.23,-0.08!,10,2
0.023,-0.027,0.008,0.027,0.013,0.035,0.024,0.041
,-0.24,-0.08!,10,2
0.023,-0.027,0.009,0.027,0.013,0.036,0.024,0.042
,-0.24,-0.06!,10,2
0.023,-0.027,0.010,0.027,0.012,0.036,0.024,0.043
,-0.22,-0.05!,10,2
0.023,-0.027,0.009,0.027,0.013,0.034,0.023,0.043
,-0.22,-0.07!,10,2
0.023,-0.027,0.009,0.027,0.014,0.034,0.023,0.042
,-0.22,-0.08!,10,2
0.023,-0.027,0.010,0.028,0.014,0.034,0.024,0.042
,-0.22,-0.08!,10,2
0.023,-0.027,0.010,0.028,0.013,0.034,0.023,0.041
,-0.21,-0.07!,10,2
0.023,-0.027,0.010,0.028,0.013,0.034,0.023,0.042
,-0.21,-0.06!,10,2
0.023,-0.027,0.010,0.028,0.013,0.035,0.025,0.042
,-0.21,-0.07!,10,2
0.023,-0.027,0.010,0.029,0.013,0.035,0.026,0.042
,-0.22,-0.09!,10,2
0.023,-0.027,0.010,0.029,0.013,0.036,0.025,0.042
,-0.22,-0.09!,10,2
0.023,-0.027,0.009,0.029,0.013,0.035,0.024,0.042
,-0.24,-0.08!,10,2
0.023,-0.027,0.009,0.029,0.014,0.035,0.025,0.042
,-0.25,-0.08!,10,2
0.023,-0.027,0.009,0.029,0.014,0.035,0.024,0.042
,-0.26,-0.09!,10,2
0.023,-0.027,0.009,0.029,0.013,0.036,0.024,0.042
,-0.25,-0.08!,10,2
0.023,-0.027,0.008,0.028,0.012,0.037,0.024,0.041
,-0.26,-0.07!,10,2
0.023,-0.027,0.008,0.028,0.012,0.038,0.025,0.042
,-0.26,-0.06!,10,2
0.023,-0.027,0.008,0.029,0.012,0.038,0.024,0.041
,-0.26,-0.06!,10,2
0.023,-0.027,0.008,0.029,0.012,0.037,0.023,0.040
,-0.26,-0.05!,10,2
0.023,-0.027,0.009,0.029,0.012,0.037,0.024,0.041
,-0.25,-0.03!,10,2
0.023,-0.027,0.009,0.028,0.012,0.037,0.025,0.042
,-0.24,-0.04!,10,2
0.023,-0.027,0.009,0.028,0.013,0.037,0.024,0.042
,-0.23,-0.06!,10,2
0.023,-0.027,0.010,0.028,0.012,0.037,0.024,0.042
,-0.23,-0.06!,10,2
0.023,-0.027,0.010,0.027,0.012,0.036,0.024,0.042
,-0.22,-0.06!,10,2
0.023,-0.027,0.010,0.027,0.011,0.035,0.025,0.042
,-0.21,-0.07!,10,2
0.023,-0.027,0.010,0.027,0.012,0.035,0.025,0.041
,-0.20,-0.08!,10,2
0.023,-0.027,0.010,0.028,0.012,0.034,0.027,0.041
,-0.20,-0.09!,10,2
0.023,-0.027,0.010,0.028,0.012,0.034,0.027,0.041
,-0.21,-0.11!,10,2
0.023,-0.027,0.012,0.027,0.012,0.033,0.027,0.042
,-0.21,-0.12!,10,2
0.023,-0.027,0.012,0.027,0.012,0.033,0.025,0.042
,-0.19,-0.12!,10,2
0.023,-0.027,0.011,0.027,0.015,0.033,0.025,0.041
,-0.18,-0.12!,10,2
0.023,-0.027,0.011,0.028,0.014,0.033,0.025,0.040
,-0.18,-0.10!,10,2
0.023,-0.027,0.010,0.028,0.013,0.033,0.025,0.041
,-0.20,-0.10!,10,2
0.023,-0.027,0.010,0.027,0.013,0.034,0.027,0.041
,-0.21,-0.09!,10,2
0.023,-0.027,0.010,0.026,0.012,0.033,0.027,0.041
,-0.20,-0.10!,10,2
0.023,-0.027,0.011,0.025,0.013,0.033,0.027,0.042
,-0.18,-0.11!,10,2
0.023,-0.027,0.010,0.023,0.013,0.034,0.025,0.041
,-0.15,-0.11!,10,2
0.023,-0.027,0.010,0.020,0.014,0.034,0.025,0.041
,-0.14,-0.09!,10,2
0.023,-0.027,0.008,0.019,0.014,0.034,0.024,0.042
,-0.13,-0.08!,10,2
0.023,-0.027,0.008,0.017,0.014,0.035,0.025,0.041
,-0.13,-0.07!,10,2
0.023,-0.027,0.007,0.015,0.011,0.034,0.025,0.040
,-0.12,-0.07!,10,2
0.023,-0.027,0.007,0.012,0.011,0.034,0.026,0.041
,-0.09,-0.07!,10,2
0.023,-0.027,0.008,0.009,0.011,0.035,0.025,0.041
,-0.07,-0.08!,10,2
0.023,-0.027,0.008,0.008,0.011,0.035,0.024,0.040
,-0.06,-0.08!,10,2
0.023,-0.027,0.008,0.009,0.011,0.034,0.024,0.039
,-0.09,-0.07!,10,2
0.023,-0.027,0.008,0.008,0.011,0.035,0.023,0.041
,-0.12,-0.06!,10,2
0.023,-0.027,0.008,0.008,0.010,0.034,0.024,0.040
,-0.11,-0.06!,10,2
0.023,-0.027,0.008,0.008,0.009,0.033,0.023,0.041
,-0.10,-0.07!,10,2
0.023,-0.027,0.008,0.009,0.009,0.033,0.023,0.040
,-0.10,-0.08!,10,2
0.023,-0.027,0.008,0.010,0.009,0.033,0.024,0.039
,-0.11,-0.08!,10,2
0.023,-0.027,0.008,0.010,0.009,0.034,0.025,0.039
,-0.14,-0.08!,10,2
0.023,-0.027,0.008,0.009,0.009,0.034,0.025,0.040
,-0.14,-0.09!,10,2
0.023,-0.027,0.008,0.010,0.010,0.034,0.026,0.040
,-0.14,-0.09!,10,2
0.023,-0.027,0.008,0.010,0.010,0.033,0.025,0.041
,-0.14,-0.10!,10,2
0.023,-0.027,0.008,0.010,0.010,0.034,0.025,0.041
,-0.15,-0.11!,10,2
0.023,-0.027,0.008,0.010,0.008,0.033,0.025,0.041
,-0.15,-0.11!,10,2
0.023,-0.027,0.008,0.010,0.008,0.033,0.025,0.041
,-0.14,-0.10!,10,2
0.023,-0.027,0.008,0.011,0.008,0.034,0.025,0.040
,-0.14,-0.10!,10,2
0.023,-0.027,0.008,0.011,0.008,0.035,0.024,0.039
,-0.15,-0.08!,10,2
0.023,-0.027,0.009,0.010,0.008,0.034,0.024,0.040
,-0.15,-0.07!,10,2
0.023,-0.027,0.009,0.010,0.008,0.034,0.024,0.043
,-0.13,-0.07!,10,2
0.023,-0.027,0.008,0.011,0.010,0.034,0.023,0.042
,-0.13,-0.08!,10,2
0.023,-0.027,0.008,0.011,0.009,0.035,0.021,0.041
,-0.15,-0.07!,10,2
0.023,-0.027,0.008,0.011,0.009,0.036,0.022,0.041
,-0.17,-0.04!,10,2
0.023,-0.027,0.007,0.011,0.009,0.036,0.023,0.041
,-0.17,-0.02!,10,2
0.023,-0.027,0.008,0.011,0.010,0.036,0.024,0.040
,-0.17,-0.04!,10,2
0.023,-0.027,0.007,0.012,0.009,0.037,0.024,0.040
,-0.17,-0.05!,10,2
0.023,-0.027,0.008,0.011,0.010,0.037,0.024,0.041
,-0.13,-0.05!,10,2
0.023,-0.027,0.008,0.011,0.009,0.036,0.024,0.041
,-0.05,-0.05!,10,2
0.023,-0.027,0.008,0.011,0.011,0.037,0.024,0.041
,-0.06,-0.05!,10,2
0.023,-0.027,0.008,0.012,0.012,0.036,0.023,0.038
,-0.15,-0.03!,10,2
0.023,-0.027,0.008,0.011,0.011,0.036,0.024,0.039
,-0.15,-0.02!,10,2
0.023,-0.027,0.008,0.011,0.010,0.036,0.024,0.041
,-0.08,-0.03!,10,2
0.023,-0.027,0.008,0.012,0.010,0.034,0.023,0.040
,-0.09,-0.06!,10,2
0.023,-0.027,0.008,0.012,0.010,0.034,0.023,0.039
,-0.11,-0.08!,10,2
0.023,-0.027,0.009,0.013,0.010,0.034,0.023,0.039
,-0.07,-0.07!,10,2
0.023,-0.027,0.009,0.012,0.010,0.033,0.022,0.039
,-0.04,-0.06!,10,2
0.023,-0.027,0.009,0.011,0.010,0.032,0.022,0.043
,-0.03,-0.05!,10,2
0.023,-0.027,0.009,0.011,0.011,0.033,0.022,0.044
,-0.06,-0.07!,10,2
0.023,-0.027,0.009,0.011,0.010,0.032,0.022,0.044
,-0.14,-0.08!,10,2
0.023,-0.027,0.009,0.011,0.009,0.032,0.023,0.044
,-0.17,-0.10!,10,2
0.023,-0.027,0.009,0.011,0.009,0.032,0.023,0.045
,-0.16,-0.10!,10,2
0.023,-0.027,0.010,0.012,0.009,0.033,0.024,0.044
,-0.16,-0.11!,10,2
0.023,-0.027,0.010,0.012,0.009,0.033,0.025,0.045
,-0.11,-0.11!,10,2
0.023,-0.027,0.011,0.011,0.009,0.034,0.025,0.046
,-0.03,-0.11!,10,2
0.023,-0.027,0.011,0.011,0.009,0.034,0.024,0.047
,-0.02,-0.11!,10,2
0.023,-0.027,0.011,0.011,0.009,0.034,0.025,0.047
,-0.08,-0.11!,10,2
0.023,-0.027,0.011,0.012,0.009,0.035,0.025,0.045
,-0.12,-0.11!,10,2
0.023,-0.027,0.012,0.013,0.009,0.035,0.026,0.043
,-0.09,-0.10!,10,2
0.023,-0.027,0.012,0.014,0.008,0.035,0.025,0.044
,-0.02,-0.10!,10,2
0.023,-0.027,0.012,0.015,0.008,0.035,0.025,0.044
,0.01,-0.09!,10,2
0.023,-0.027,0.013,0.016,0.008,0.035,0.027,0.043
,0.01,-0.09!,10,2
0.023,-0.027,0.012,0.017,0.008,0.034,0.026,0.045
,0.01,-0.09!,10,2
0.023,-0.027,0.013,0.018,0.008,0.034,0.025,0.045
,-0.00,-0.10!,10,2
0.023,-0.027,0.013,0.018,0.008,0.033,0.026,0.045
,-0.02,-0.11!,10,2
0.023,-0.027,0.013,0.019,0.009,0.034,0.026,0.045
,-0.03,-0.12!,10,2
0.023,-0.027,0.013,0.019,0.009,0.034,0.025,0.046
,-0.04,-0.11!,10,2
0.023,-0.027,0.013,0.019,0.008,0.034,0.025,0.045
,-0.04,-0.10!,10,2
0.023,-0.027,0.013,0.019,0.007,0.034,0.025,0.045
,-0.04,-0.10!,10,2
0.023,-0.027,0.014,0.018,0.008,0.034,0.025,0.043
,-0.02,-0.10!,10,2
0.023,-0.027,0.014,0.019,0.008,0.034,0.024,0.044
,0.00,-0.10!,10,2
0.023,-0.027,0.014,0.018,0.009,0.035,0.022,0.043
,0.01,-0.08!,10,2
0.023,-0.027,0.014,0.017,0.009,0.036,0.021,0.042
,0.00,-0.06!,10,2
0.023,-0.027,0.013,0.017,0.009,0.035,0.022,0.041
,-0.01,-0.04!,10,2
0.023,-0.027,0.013,0.017,0.009,0.035,0.021,0.041
,-0.02,-0.03!,10,2
0.023,-0.027,0.013,0.017,0.009,0.035,0.020,0.041
,-0.02,-0.03!,10,2
0.023,-0.027,0.013,0.017,0.009,0.035,0.022,0.039
,-0.02,-0.03!,10,2
0.023,-0.027,0.013,0.017,0.009,0.035,0.022,0.040
,-0.01,-0.04!,10,2
0.023,-0.027,0.013,0.017,0.009,0.034,0.023,0.042
,-0.01,-0.05!,10,2
0.023,-0.027,0.012,0.017,0.010,0.034,0.023,0.043
,-0.02,-0.07!,10,2
0.023,-0.027,0.012,0.017,0.010,0.033,0.024,0.042
,-0.04,-0.08!,10,2
0.023,-0.027,0.012,0.017,0.009,0.033,0.024,0.044
,-0.04,-0.09!,10,2
0.023,-0.027,0.012,0.017,0.009,0.033,0.025,0.043
,-0.04,-0.10!,10,2
0.023,-0.027,0.012,0.018,0.009,0.033,0.024,0.044
,-0.04,-0.11!,10,2
0.023,-0.027,0.012,0.018,0.010,0.034,0.024,0.043
,-0.05,-0.10!,10,2
0.023,-0.027,0.013,0.018,0.009,0.034,0.026,0.043
,-0.04,-0.09!,10,2
0.023,-0.027,0.013,0.018,0.010,0.033,0.025,0.043
,-0.03,-0.09!,10,2
0.023,-0.028,0.012,0.019,0.010,0.033,0.026,0.044
,-0.04,-0.09!,10,2
0.023,-0.027,0.013,0.019,0.010,0.033,0.027,0.043
,-0.06,0.17!,10,2
0.023,-0.028,0.013,0.018,0.009,0.033,0.027,0.043
,-0.06,0.30!,10,2
0.023,-0.027,0.013,0.018,0.009,0.033,0.027,0.044
,-0.04,0.04!,10,2
0.023,-0.027,0.013,0.019,0.009,0.033,0.027,0.043
,-0.03,-0.14!,10,2
0.023,-0.028,0.013,0.019,0.009,0.033,0.026,0.045
,-0.04,-0.17!,10,2
0.023,-0.027,0.013,0.018,0.009,0.033,0.027,0.043
,-0.03,0.12!,10,2
0.023,-0.027,0.014,0.018,0.009,0.032,0.027,0.044
,-0.03,0.29!,10,2
0.023,-0.027,0.015,0.018,0.009,0.032,0.026,0.045
,-0.01,0.04!,10,2
0.023,-0.027,0.015,0.018,0.010,0.033,0.025,0.044
,0.01,-0.13!,10,2
0.023,-0.028,0.014,0.017,0.010,0.032,0.027,0.045
,0.01,-0.16!,10,2
0.023,-0.028,0.014,0.017,0.010,0.033,0.025,0.044
,0.00,0.13!,10,2
0.023,-0.028,0.014,0.017,0.010,0.032,0.025,0.044
,-0.00,0.30!,10,2
0.023,-0.028,0.013,0.017,0.009,0.033,0.026,0.044
,-0.00,0.06!,10,2
0.023,-0.028,0.013,0.017,0.009,0.032,0.026,0.044
,-0.00,-0.11!,10,2
0.023,-0.028,0.014,0.016,0.009,0.032,0.027,0.043
,-0.01,-0.16!,10,2
0.023,-0.028,0.014,0.016,0.009,0.033,0.027,0.045
,-0.00,-0.16!,10,2
0.023,-0.028,0.013,0.017,0.010,0.033,0.027,0.043
,0.01,-0.14!,10,2
0.023,-0.028,0.011,0.017,0.010,0.033,0.028,0.044
,-0.01,-0.14!,10,2
0.023,-0.028,0.011,0.018,0.009,0.033,0.027,0.044
,-0.05,-0.15!,10,2
0.023,-0.028,0.011,0.018,0.008,0.034,0.024,0.042
,-0.06,-0.13!,10,2
0.023,-0.028,0.010,0.019,0.008,0.034,0.026,0.043
,-0.06,-0.09!,10,2
0.023,-0.028,0.010,0.022,0.008,0.034,0.026,0.043
,-0.08,-0.08!,10,2
0.023,-0.028,0.010,0.026,0.008,0.033,0.026,0.042
,-0.12,-0.10!,10,2
0.023,-0.028,0.009,0.030,0.008,0.034,0.026,0.042
,-0.18,-0.12!,10,2
0.023,-0.028,0.008,0.033,0.009,0.034,0.025,0.041
,-0.24,-0.12!,10,2
0.023,-0.028,0.008,0.035,0.009,0.034,0.023,0.041
,-0.29,-0.09!,10,2
0.023,-0.028,0.008,0.037,0.009,0.034,0.024,0.041
,-0.32,-0.07!,10,2
0.023,-0.028,0.008,0.040,0.009,0.033,0.024,0.039
,-0.35,-0.06!,10,2
0.023,-0.028,0.008,0.042,0.008,0.032,0.024,0.040
,-0.38,-0.07!,10,2
0.023,-0.028,0.008,0.044,0.008,0.033,0.025,0.040
,-0.40,-0.09!,10,2
0.023,-0.028,0.008,0.046,0.008,0.033,0.023,0.039
,-0.42,-0.11!,10,2
0.023,-0.028,0.008,0.046,0.010,0.033,0.024,0.040
,-0.43,-0.10!,10,2
0.023,-0.028,0.007,0.046,0.010,0.034,0.023,0.041
,-0.44,-0.09!,10,2
0.023,-0.028,0.008,0.046,0.010,0.033,0.022,0.041
,-0.45,-0.07!,10,2
0.023,-0.028,0.008,0.046,0.009,0.033,0.022,0.041
,-0.45,-0.05!,10,2
0.023,-0.028,0.008,0.046,0.010,0.033,0.021,0.040
,-0.44,-0.05!,10,2
0.023,-0.028,0.008,0.046,0.010,0.033,0.022,0.040
,-0.45,-0.04!,10,2
0.023,-0.028,0.008,0.045,0.009,0.033,0.021,0.040
,-0.45,-0.04!,10,2
0.023,-0.028,0.008,0.045,0.009,0.034,0.021,0.041
,-0.44,-0.04!,10,2
0.023,-0.028,0.008,0.045,0.011,0.033,0.021,0.042
,-0.43,-0.04!,10,2
0.023,-0.028,0.009,0.045,0.011,0.033,0.021,0.042
,-0.44,-0.04!,10,2
0.023,-0.028,0.009,0.045,0.011,0.033,0.022,0.041
,-0.44,-0.06!,10,2
0.023,-0.028,0.009,0.045,0.011,0.033,0.023,0.041
,-0.43,-0.07!,10,2
0.023,-0.028,0.008,0.044,0.011,0.034,0.023,0.042
,-0.43,-0.07!,10,2
0.023,-0.028,0.007,0.044,0.011,0.033,0.025,0.042
,-0.43,-0.08!,10,2
0.023,-0.028,0.008,0.044,0.011,0.033,0.025,0.041
,-0.43,-0.09!,10,2
0.023,-0.028,0.009,0.044,0.011,0.033,0.025,0.042
,-0.43,-0.10!,10,2
0.023,-0.028,0.009,0.044,0.011,0.034,0.027,0.041
,-0.42,-0.11!,10,2
0.023,-0.028,0.008,0.045,0.012,0.034,0.027,0.041
,-0.43,-0.12!,10,2
0.023,-0.028,0.008,0.044,0.012,0.034,0.028,0.041
,-0.44,-0.13!,10,2
0.023,-0.028,0.007,0.044,0.012,0.036,0.028,0.041
,-0.44,-0.12!,10,2
0.023,-0.028,0.007,0.044,0.012,0.035,0.026,0.041
,-0.45,-0.09!,10,2
0.023,-0.028,0.007,0.045,0.012,0.036,0.028,0.041
,-0.47,-0.07!,10,2
0.023,-0.028,0.007,0.044,0.012,0.036,0.029,0.039
,-0.47,-0.08!,10,2
0.023,-0.028,0.008,0.044,0.011,0.036,0.028,0.039
,-0.46,-0.10!,10,2
0.023,-0.028,0.008,0.045,0.011,0.036,0.030,0.041
,-0.46,-0.12!,10,2
0.023,-0.028,0.008,0.045,0.012,0.036,0.030,0.040
,-0.46,-0.14!,10,2
0.023,-0.028,0.008,0.045,0.013,0.036,0.029,0.042
,-0.47,-0.13!,10,2
0.023,-0.028,0.008,0.044,0.012,0.036,0.028,0.041
,-0.46,-0.12!,10,2
0.023,-0.028,0.008,0.044,0.011,0.037,0.027,0.041
,-0.46,-0.11!,10,2
0.022,-0.028,0.008,0.045,0.011,0.035,0.026,0.041
,-0.45,-0.10!,10,2
0.022,-0.028,0.008,0.045,0.011,0.036,0.027,0.041
,-0.26,-0.10!,10,2
0.022,-0.028,0.010,0.045,0.012,0.035,0.025,0.041
,-0.16,-0.11!,10,2
0.022,-0.028,0.010,0.044,0.011,0.035,0.027,0.041
,-0.33,-0.11!,10,2
0.022,-0.028,0.009,0.045,0.012,0.034,0.026,0.042
,-0.44,-0.12!,10,2
0.022,-0.028,0.010,0.044,0.012,0.035,0.024,0.041
,-0.46,-0.11!,10,2
0.022,-0.028,0.009,0.044,0.011,0.034,0.024,0.041
,-0.43,-0.08!,10,2
0.020,-0.028,0.009,0.044,0.010,0.035,0.024,0.040
,-0.41,-0.07!,10,2
0.020,-0.028,0.009,0.045,0.010,0.035,0.024,0.041
,-0.16,-0.07!,10,2
0.020,-0.028,0.009,0.045,0.010,0.036,0.026,0.041
,-0.02,-0.08!,10,2
0.020,-0.028,0.009,0.044,0.009,0.036,0.027,0.042
,-0.27,-0.09!,10,2
0.020,-0.028,0.010,0.044,0.010,0.035,0.027,0.040
,-0.44,-0.09!,10,2
0.020,-0.028,0.008,0.043,0.010,0.036,0.027,0.040
,-0.48,-0.09!,10,2
0.020,-0.028,0.008,0.042,0.011,0.036,0.025,0.042
,-0.46,-0.08!,10,2
0.020,-0.028,0.007,0.042,0.011,0.036,0.024,0.042
,-0.44,-0.07!,10,2
0.019,-0.028,0.007,0.041,0.011,0.036,0.026,0.043
,-0.43,-0.07!,10,2
0.019,-0.028,0.007,0.041,0.011,0.036,0.025,0.043
,-0.43,-0.09!,10,2
0.019,-0.028,0.007,0.040,0.011,0.036,0.025,0.044
,-0.42,-0.09!,10,2
0.017,-0.028,0.007,0.039,0.012,0.036,0.025,0.043
,-0.41,-0.09!,10,2
0.017,-0.028,0.007,0.038,0.012,0.034,0.024,0.043
,-0.18,-0.07!,10,2
0.017,-0.028,0.008,0.036,0.014,0.033,0.023,0.043
,-0.04,-0.07!,10,2
0.018,-0.028,0.007,0.036,0.014,0.035,0.024,0.045
,-0.24,-0.09!,10,2
0.018,-0.028,0.007,0.036,0.015,0.034,0.023,0.046
,-0.39,-0.10!,10,2
0.018,-0.028,0.007,0.036,0.015,0.033,0.023,0.044
,-0.43,-0.10!,10,2
0.018,-0.028,0.007,0.036,0.015,0.034,0.024,0.045
,-0.41,-0.08!,10,2
0.018,-0.028,0.006,0.036,0.016,0.032,0.022,0.043
,-0.40,-0.06!,10,2
0.018,-0.028,0.009,0.037,0.016,0.032,0.024,0.043
,-0.41,-0.06!,10,2
0.018,-0.028,0.009,0.037,0.016,0.030,0.024,0.045
,-0.41,-0.08!,10,2
0.018,-0.028,0.009,0.036,0.017,0.030,0.024,0.045
,-0.38,-0.11!,10,2
0.018,-0.028,0.009,0.037,0.017,0.031,0.024,0.045
,-0.36,-0.13!,10,2
0.018,-0.028,0.008,0.037,0.016,0.031,0.025,0.044
,-0.36,-0.13!,10,2
0.018,-0.028,0.008,0.037,0.015,0.031,0.025,0.043
,-0.37,-0.13!,10,2
0.018,-0.028,0.008,0.037,0.016,0.032,0.026,0.042
,-0.38,-0.12!,10,2
0.018,-0.028,0.008,0.038,0.016,0.033,0.027,0.042
,-0.39,-0.12!,10,2
0.018,-0.028,0.009,0.038,0.016,0.033,0.026,0.042
,-0.39,-0.13!,10,2
0.018,-0.028,0.009,0.038,0.016,0.034,0.028,0.042
,-0.39,-0.14!,10,2
0.018,-0.028,0.007,0.037,0.017,0.033,0.027,0.043
,-0.38,-0.15!,10,2
0.018,-0.028,0.007,0.037,0.017,0.034,0.027,0.040
,-0.38,-0.14!,10,2
0.018,-0.028,0.007,0.037,0.016,0.035,0.027,0.040
,-0.40,-0.12!,10,2
0.018,-0.028,0.007,0.037,0.016,0.035,0.027,0.039
,-0.40,-0.10!,10,2
0.018,-0.028,0.007,0.037,0.016,0.034,0.026,0.040
,-0.40,-0.09!,10,2
0.018,-0.028,0.008,0.037,0.016,0.034,0.028,0.040
,-0.40,-0.11!,10,2
0.018,-0.028,0.008,0.038,0.015,0.034,0.027,0.039
,-0.39,-0.13!,10,2
0.018,-0.028,0.009,0.038,0.016,0.033,0.026,0.038
,-0.38,-0.12!,10,2
0.018,-0.028,0.009,0.037,0.016,0.033,0.026,0.041
,-0.37,-0.10!,10,2
0.018,-0.028,0.009,0.037,0.016,0.033,0.024,0.042
,-0.36,-0.09!,10,2
0.018,-0.027,0.009,0.037,0.016,0.035,0.023,0.041
,-0.36,-0.07!,10,2
0.018,-0.027,0.009,0.037,0.016,0.035,0.024,0.042
,-0.36,-0.06!,10,2
0.018,-0.027,0.009,0.037,0.015,0.035,0.024,0.042
,-0.36,-0.07!,10,2
0.018,-0.027,0.009,0.036,0.015,0.035,0.024,0.042
,-0.36,-0.07!,10,2
0.018,-0.027,0.009,0.037,0.016,0.035,0.026,0.042
,-0.36,-0.07!,10,2
0.018,-0.027,0.010,0.037,0.016,0.036,0.024,0.041
,-0.36,-0.07!,10,2
0.018,-0.027,0.010,0.036,0.015,0.036,0.024,0.042
,-0.34,-0.06!,10,2
0.018,-0.027,0.009,0.036,0.015,0.036,0.026,0.042
,-0.33,-0.06!,10,2
0.018,-0.027,0.009,0.037,0.015,0.037,0.026,0.041
,-0.35,-0.08!,10,2
0.018,-0.027,0.009,0.037,0.015,0.037,0.026,0.040
,-0.37,-0.08!,10,2
0.018,-0.027,0.009,0.037,0.015,0.037,0.027,0.040
,-0.37,-0.07!,10,2
0.018,-0.027,0.008,0.037,0.015,0.038,0.027,0.040
,-0.37,-0.07!,10,2
0.018,-0.027,0.008,0.037,0.015,0.038,0.028,0.040
,-0.38,-0.07!,10,2
0.018,-0.027,0.009,0.038,0.015,0.038,0.029,0.040
,-0.38,-0.08!,10,2
0.018,-0.027,0.009,0.038,0.015,0.039,0.028,0.040
,-0.37,-0.09!,10,2
0.018,-0.027,0.009,0.036,0.015,0.038,0.029,0.041
,-0.37,-0.09!,10,2
0.018,-0.027,0.008,0.035,0.015,0.038,0.028,0.041
,-0.36,-0.09!,10,2
0.018,-0.027,0.009,0.032,0.015,0.038,0.027,0.041
,-0.34,-0.09!,10,2
0.018,-0.027,0.008,0.030,0.014,0.038,0.028,0.040
,-0.30,-0.07!,10,2
0.018,-0.027,0.008,0.028,0.014,0.037,0.028,0.040
,-0.27,-0.07!,10,2
0.018,-0.027,0.008,0.026,0.016,0.037,0.029,0.039
,-0.26,-0.08!,10,2
0.018,-0.027,0.008,0.023,0.017,0.036,0.027,0.039
,-0.25,-0.08!,10,2
0.018,-0.027,0.008,0.021,0.020,0.034,0.026,0.040
,-0.23,-0.08!,10,2
0.018,-0.027,0.008,0.016,0.021,0.035,0.024,0.041
,-0.21,-0.09!,10,2
0.018,-0.027,0.008,0.012,0.023,0.034,0.024,0.041
,-0.17,-0.08!,10,2
0.018,-0.027,0.008,0.011,0.023,0.033,0.023,0.040
,-0.16,-0.07!,10,2
0.018,-0.027,0.008,0.011,0.024,0.034,0.023,0.040
,-0.21,-0.06!,10,2
0.018,-0.027,0.008,0.012,0.025,0.034,0.024,0.040
,-0.25,-0.06!,10,2
0.018,-0.027,0.009,0.012,0.026,0.032,0.024,0.041
,-0.27,-0.08!,10,2
0.018,-0.027,0.009,0.012,0.027,0.032,0.023,0.041
,-0.27,-0.09!,10,2
0.018,-0.027,0.009,0.011,0.028,0.033,0.022,0.040
,-0.26,-0.09!,10,2
0.018,-0.027,0.009,0.011,0.028,0.033,0.023,0.040
,-0.25,-0.08!,10,2
0.018,-0.027,0.009,0.012,0.028,0.034,0.024,0.040
,-0.25,-0.07!,10,2
0.018,-0.027,0.008,0.011,0.028,0.033,0.025,0.039
,-0.26,-0.07!,10,2
0.018,-0.027,0.008,0.012,0.028,0.033,0.025,0.038
,-0.27,-0.08!,10,2
0.018,-0.027,0.008,0.013,0.028,0.033,0.027,0.039
,-0.29,-0.10!,10,2
0.018,-0.027,0.008,0.013,0.028,0.032,0.028,0.040
,-0.31,-0.13!,10,2
0.018,-0.027,0.009,0.012,0.028,0.033,0.027,0.040
,-0.30,-0.14!,10,2
0.018,-0.027,0.011,0.012,0.028,0.033,0.027,0.041
,-0.27,-0.13!,10,2
0.018,-0.027,0.011,0.012,0.029,0.033,0.027,0.041
,-0.25,-0.12!,10,2
0.018,-0.027,0.011,0.012,0.030,0.033,0.027,0.041
,-0.23,-0.12!,10,2
0.018,-0.027,0.011,0.012,0.030,0.034,0.026,0.042
,-0.24,-0.12!,10,2
0.018,-0.027,0.011,0.012,0.030,0.034,0.026,0.042
,-0.24,-0.11!,10,2
0.018,-0.027,0.011,0.013,0.030,0.035,0.026,0.041
,-0.24,-0.10!,10,2
0.018,-0.027,0.011,0.012,0.030,0.035,0.027,0.042
,-0.25,-0.10!,10,2
0.018,-0.027,0.011,0.012,0.030,0.035,0.024,0.041
,-0.25,-0.08!,10,2
0.018,-0.027,0.012,0.012,0.030,0.036,0.025,0.042
,-0.24,-0.05!,10,2
0.018,-0.027,0.011,0.012,0.030,0.037,0.025,0.042
,-0.24,-0.05!,10,2
0.018,-0.027,0.008,0.012,0.031,0.038,0.025,0.040
,-0.24,-0.05!,10,2
0.018,-0.027,0.008,0.012,0.030,0.040,0.027,0.041
,-0.27,-0.06!,10,2
0.018,-0.027,0.008,0.012,0.028,0.041,0.027,0.042
,-0.29,-0.06!,10,2
0.018,-0.027,0.008,0.012,0.028,0.043,0.028,0.041
,-0.29,-0.06!,10,2
0.018,-0.027,0.008,0.012,0.027,0.042,0.028,0.041
,-0.28,-0.05!,10,2
0.018,-0.027,0.009,0.012,0.027,0.044,0.029,0.041
,-0.27,-0.05!,10,2
0.018,-0.026,0.009,0.012,0.027,0.044,0.028,0.042
,-0.26,-0.05!,10,2
0.018,-0.025,0.008,0.012,0.027,0.044,0.028,0.042
,-0.26,-0.04!,10,2
0.018,-0.024,0.007,0.012,0.027,0.044,0.027,0.042
,-0.28,-0.34!,10,2
0.018,-0.022,0.007,0.012,0.027,0.044,0.028,0.041
,-0.29,-0.82!,10,2
0.018,-0.021,0.007,0.012,0.026,0.044,0.027,0.041
,-0.30,-1.01!,10,2
0.018,-0.020,0.007,0.012,0.026,0.043,0.026,0.042
,-0.30,-0.99!,10,2
0.018,-0.020,0.007,0.013,0.027,0.043,0.025,0.041
,-0.30,-0.92!,10,2
0.018,-0.020,0.007,0.012,0.027,0.041,0.026,0.041
,-0.31,-0.59!,10,2
0.018,-0.020,0.007,0.012,0.027,0.042,0.025,0.041
,-0.31,-0.12!,10,2
0.018,-0.020,0.007,0.012,0.027,0.041,0.024,0.041
,-0.30,0.06!,10,2
0.018,-0.020,0.007,0.012,0.027,0.041,0.025,0.040
,-0.30,0.05!,10,2
0.018,-0.020,0.007,0.012,0.028,0.042,0.025,0.043
,-0.30,0.00!,10,2
0.017,-0.020,0.007,0.012,0.028,0.043,0.024,0.042
,-0.30,-0.01!,10,2
0.017,-0.020,0.007,0.013,0.027,0.044,0.025,0.042
,-0.25,0.00!,10,2
0.017,-0.021,0.008,0.013,0.028,0.043,0.025,0.041
,-0.18,0.02!,10,2
0.017,-0.021,0.007,0.014,0.028,0.043,0.027,0.040
,-0.21,0.02!,10,2
0.017,-0.021,0.008,0.014,0.027,0.041,0.028,0.043
,-0.26,-0.01!,10,2
0.017,-0.020,0.008,0.014,0.026,0.041,0.027,0.042
,-0.21,-0.05!,10,2
0.017,-0.021,0.008,0.015,0.026,0.040,0.027,0.042
,-0.16,-0.06!,10,2
0.017,-0.021,0.008,0.015,0.026,0.040,0.026,0.041
,-0.15,-0.06!,10,2
0.017,-0.021,0.009,0.016,0.025,0.040,0.026,0.041
,-0.15,-0.05!,10,2
0.017,-0.021,0.009,0.017,0.024,0.039,0.027,0.039
,-0.16,-0.05!,10,2
0.017,-0.021,0.009,0.017,0.022,0.038,0.030,0.042
,-0.16,-0.07!,10,2
0.016,-0.021,0.009,0.018,0.021,0.038,0.029,0.042
,-0.16,-0.11!,10,2
0.015,-0.021,0.010,0.018,0.019,0.037,0.030,0.043
,-0.06,-0.13!,10,2
0.015,-0.021,0.009,0.017,0.018,0.038,0.029,0.044
,0.17,-0.12!,10,2
0.015,-0.021,0.009,0.018,0.017,0.038,0.029,0.041
,0.18,-0.11!,10,2
0.015,-0.021,0.010,0.018,0.015,0.038,0.028,0.042
,-0.03,-0.09!,10,2
0.015,-0.020,0.010,0.017,0.013,0.038,0.029,0.042
,-0.13,-0.09!,10,2
0.015,-0.021,0.010,0.018,0.011,0.038,0.029,0.042
,-0.12,-0.40!,10,2
0.015,-0.021,0.009,0.018,0.011,0.037,0.028,0.043
,-0.10,-0.57!,10,2
0.015,-0.021,0.010,0.018,0.011,0.038,0.028,0.043
,-0.08,-0.29!,10,2
0.015,-0.021,0.011,0.018,0.011,0.037,0.027,0.041
,-0.08,-0.10!,10,2
0.015,-0.021,0.010,0.017,0.012,0.037,0.027,0.041
,-0.09,-0.05!,10,2
0.014,-0.021,0.010,0.017,0.012,0.038,0.025,0.041
,-0.09,-0.06!,10,2
0.013,-0.021,0.010,0.017,0.011,0.038,0.024,0.041
,-0.09,-0.06!,10,2
0.012,-0.021,0.010,0.017,0.010,0.039,0.025,0.042
,0.07,-0.04!,10,2
0.011,-0.021,0.009,0.017,0.010,0.041,0.026,0.042
,0.31,-0.03!,10,2
0.010,-0.021,0.010,0.017,0.010,0.041,0.026,0.043
,0.39,-0.04!,10,2
0.010,-0.020,0.010,0.017,0.011,0.040,0.027,0.043
,0.40,-0.05!,10,2
0.009,-0.020,0.011,0.017,0.012,0.041,0.027,0.042
,0.23,-0.35!,10,2
0.008,-0.020,0.011,0.016,0.012,0.040,0.025,0.041
,-0.02,-0.52!,10,2
0.007,-0.020,0.011,0.016,0.012,0.040,0.026,0.040
,0.05,-0.24!,10,2
0.006,-0.020,0.012,0.017,0.011,0.039,0.026,0.040
,0.32,-0.05!,10,2
0.004,-0.020,0.013,0.017,0.011,0.039,0.026,0.041
,0.48,-0.01!,10,2
0.002,-0.020,0.014,0.017,0.011,0.037,0.026,0.040
,0.52,-0.04!,10,2
-0.000,-0.020,0.014,0.017,0.011,0.037,0.027,0.039
,0.53,-0.07!,10,2
-0.003,-0.020,0.015,0.016,0.011,0.036,0.026,0.039
,0.54,-0.09!,10,2
-0.005,-0.020,0.015,0.017,0.012,0.035,0.026,0.038
,0.55,-0.09!,10,2
-0.007,-0.020,0.015,0.017,0.011,0.036,0.024,0.039
,0.56,-0.08!,10,2
-0.008,-0.020,0.014,0.017,0.010,0.036,0.025,0.041
,0.55,-0.07!,10,2
-0.008,-0.020,0.014,0.017,0.010,0.037,0.026,0.041
,0.53,-0.07!,10,2
-0.008,-0.020,0.013,0.017,0.010,0.037,0.025,0.041
,0.34,-0.06!,10,2
-0.008,-0.020,0.012,0.016,0.009,0.037,0.026,0.042
,0.05,-0.05!,10,2
-0.008,-0.020,0.011,0.016,0.009,0.037,0.026,0.041
,-0.08,-0.06!,10,2
-0.008,-0.020,0.011,0.016,0.009,0.037,0.026,0.041
,-0.08,-0.07!,10,2
-0.008,-0.020,0.010,0.016,0.010,0.038,0.025,0.043
,-0.05,-0.07!,10,2
-0.008,-0.020,0.010,0.016,0.010,0.036,0.024,0.044
,-0.05,-0.07!,10,2
-0.008,-0.020,0.008,0.016,0.010,0.037,0.025,0.043
,-0.06,-0.08!,10,2
-0.008,-0.020,0.009,0.015,0.010,0.036,0.026,0.044
,-0.07,-0.08!,10,2
-0.008,-0.020,0.009,0.016,0.010,0.036,0.026,0.043
,-0.07,-0.09!,10,2
-0.008,-0.020,0.009,0.016,0.010,0.035,0.026,0.043
,-0.08,-0.09!,10,2
-0.008,-0.020,0.009,0.015,0.010,0.035,0.026,0.043
,-0.08,-0.10!,10,2
-0.008,-0.020,0.010,0.015,0.011,0.036,0.026,0.043
,-0.06,-0.10!,10,2
-0.008,-0.020,0.011,0.016,0.011,0.034,0.026,0.042
,-0.05,-0.09!,10,2
-0.008,-0.020,0.010,0.016,0.011,0.034,0.026,0.042
,-0.06,-0.09!,10,2
-0.008,-0.020,0.010,0.016,0.010,0.035,0.026,0.040
,-0.07,-0.09!,10,2
-0.008,-0.020,0.010,0.016,0.011,0.036,0.026,0.042
,-0.07,-0.09!,10,2
-0.008,-0.020,0.010,0.016,0.010,0.036,0.025,0.042
,-0.06,-0.07!,10,2
-0.008,-0.020,0.009,0.016,0.010,0.036,0.025,0.040
,-0.07,-0.07!,10,2
-0.008,-0.021,0.008,0.015,0.010,0.036,0.024,0.041
,-0.08,-0.06!,10,2
-0.008,-0.021,0.009,0.016,0.010,0.036,0.023,0.041
,-0.07,-0.06!,10,2
-0.008,-0.021,0.009,0.016,0.011,0.037,0.023,0.042
,-0.07,-0.05!,10,2
-0.008,-0.021,0.009,0.015,0.011,0.037,0.022,0.042
,-0.08,-0.05!,10,2
-0.008,-0.021,0.008,0.014,0.012,0.037,0.023,0.043
,-0.08,-0.04!,10,2
-0.008,-0.021,0.008,0.014,0.011,0.037,0.022,0.042
,-0.07,-0.05!,10,2
-0.008,-0.021,0.008,0.014,0.012,0.036,0.022,0.042
,-0.08,-0.04!,10,2
-0.008,-0.021,0.008,0.013,0.011,0.036,0.023,0.040
,-0.08,-0.04!,10,2
-0.008,-0.021,0.008,0.013,0.011,0.037,0.024,0.041
,-0.08,-0.04!,10,2
-0.008,-0.021,0.008,0.014,0.011,0.037,0.023,0.041
,-0.07,-0.05!,10,2
-0.008,-0.021,0.008,0.014,0.012,0.037,0.023,0.041
,-0.07,-0.05!,10,2
-0.008,-0.021,0.008,0.013,0.012,0.037,0.022,0.041
,-0.08,-0.04!,10,2
-0.008,-0.021,0.008,0.013,0.011,0.035,0.023,0.040
,-0.08,-0.04!,10,2
-0.008,-0.021,0.007,0.013,0.011,0.035,0.023,0.040
,-0.08,-0.04!,10,2
-0.008,-0.021,0.007,0.013,0.010,0.035,0.022,0.040
,-0.08,-0.05!,10,2
-0.008,-0.021,0.008,0.013,0.010,0.037,0.024,0.041
,-0.08,-0.03!,10,2
-0.008,-0.021,0.009,0.013,0.009,0.037,0.023,0.042
,-0.06,-0.02!,10,2
-0.008,-0.021,0.009,0.013,0.010,0.036,0.025,0.042
,-0.05,-0.03!,10,2
-0.008,-0.021,0.009,0.013,0.010,0.036,0.024,0.041
,-0.04,-0.05!,10,2
-0.008,-0.022,0.010,0.012,0.010,0.036,0.024,0.041
,-0.03,-0.05!,10,2
-0.008,-0.023,0.009,0.012,0.010,0.035,0.025,0.041
,-0.02,0.21!,10,2
-0.008,-0.023,0.008,0.012,0.010,0.036,0.025,0.041
,-0.02,0.62!,10,2
-0.008,-0.023,0.008,0.012,0.011,0.037,0.025,0.042
,-0.05,0.52!,10,2
-0.008,-0.023,0.008,0.012,0.011,0.037,0.024,0.042
,-0.06,0.10!,10,2
-0.008,-0.023,0.008,0.012,0.011,0.037,0.026,0.043
,-0.06,-0.12!,10,2
-0.008,-0.023,0.009,0.012,0.011,0.036,0.026,0.041
,-0.05,-0.15!,10,2
-0.008,-0.023,0.009,0.012,0.011,0.036,0.026,0.041
,-0.03,-0.12!,10,2
-0.008,-0.023,0.009,0.012,0.011,0.035,0.025,0.041
,-0.03,-0.09!,10,2
-0.008,-0.023,0.009,0.012,0.011,0.036,0.025,0.041
,-0.03,-0.08!,10,2
-0.008,-0.023,0.009,0.012,0.011,0.035,0.025,0.041
,-0.03,-0.08!,10,2
-0.008,-0.023,0.009,0.012,0.010,0.034,0.025,0.041
,-0.03,-0.08!,10,2
-0.008,-0.023,0.009,0.013,0.010,0.033,0.025,0.040
,-0.03,-0.09!,10,2
-0.008,-0.023,0.009,0.014,0.010,0.033,0.027,0.040
,-0.04,-0.11!,10,2
-0.008,-0.023,0.010,0.014,0.010,0.034,0.026,0.041
,-0.05,-0.12!,10,2
-0.008,-0.023,0.011,0.013,0.010,0.033,0.025,0.042
,-0.03,-0.11!,10,2
-0.008,-0.023,0.010,0.013,0.010,0.033,0.024,0.043
,-0.02,-0.10!,10,2
-0.008,-0.023,0.009,0.013,0.011,0.034,0.025,0.042
,-0.03,-0.10!,10,2
-0.008,-0.023,0.009,0.013,0.010,0.034,0.025,0.043
,-0.04,-0.10!,10,2
-0.008,-0.023,0.009,0.013,0.010,0.034,0.024,0.043
,-0.05,-0.09!,10,2
-0.008,-0.023,0.009,0.013,0.010,0.035,0.025,0.043
,-0.05,-0.08!,10,2
-0.008,-0.023,0.009,0.013,0.010,0.036,0.025,0.043
,-0.04,-0.07!,10,2
-0.008,-0.023,0.009,0.013,0.009,0.036,0.026,0.044
,-0.04,-0.08!,10,2
-0.008,-0.023,0.009,0.012,0.010,0.035,0.024,0.044
,-0.04,-0.07!,10,2
-0.008,-0.023,0.008,0.012,0.011,0.034,0.024,0.045
,-0.04,-0.07!,10,2
-0.008,-0.023,0.007,0.012,0.011,0.035,0.024,0.042
,-0.05,-0.08!,10,2
-0.008,-0.023,0.007,0.012,0.011,0.034,0.025,0.042
,-0.06,-0.08!,10,2
-0.008,-0.023,0.006,0.012,0.010,0.034,0.024,0.043
,-0.07,-0.08!,10,2
-0.008,-0.023,0.007,0.013,0.010,0.033,0.025,0.042
,-0.07,-0.09!,10,2
-0.008,-0.023,0.007,0.013,0.009,0.033,0.026,0.042
,-0.06,-0.10!,10,2
-0.008,-0.023,0.007,0.013,0.009,0.033,0.024,0.042
,-0.07,-0.12!,10,2
-0.008,-0.023,0.007,0.013,0.009,0.032,0.024,0.041
,-0.07,-0.11!,10,2
-0.008,-0.023,0.008,0.012,0.009,0.032,0.023,0.042
,-0.07,-0.10!,10,2
-0.008,-0.023,0.008,0.012,0.009,0.032,0.023,0.041
,-0.05,-0.09!,10,2
-0.008,-0.023,0.007,0.012,0.009,0.032,0.023,0.041
,-0.05,-0.09!,10,2
-0.008,-0.023,0.008,0.012,0.009,0.033,0.022,0.042
,-0.06,-0.08!,10,2
-0.008,-0.023,0.008,0.012,0.008,0.033,0.021,0.041
,-0.06,-0.07!,10,2
-0.008,-0.023,0.009,0.012,0.008,0.033,0.023,0.042
,-0.05,-0.07!,10,2
-0.008,-0.023,0.008,0.012,0.009,0.035,0.024,0.041
,-0.04,-0.08!,10,2
-0.008,-0.023,0.009,0.012,0.010,0.035,0.024,0.040
,-0.05,-0.07!,10,2
-0.008,-0.023,0.009,0.012,0.010,0.035,0.025,0.041
,-0.05,-0.06!,10,2
-0.008,-0.023,0.009,0.011,0.010,0.036,0.025,0.041
,-0.03,-0.07!,10,2
-0.008,-0.023,0.008,0.011,0.010,0.036,0.025,0.042
,-0.03,-0.07!,10,2
-0.009,-0.023,0.008,0.012,0.010,0.036,0.025,0.042
,-0.04,-0.07!,10,2
-0.009,-0.023,0.008,0.013,0.009,0.037,0.027,0.041
,-0.05,-0.07!,10,2
-0.010,-0.023,0.009,0.013,0.010,0.036,0.027,0.041
,-0.06,-0.07!,10,2
-0.011,-0.023,0.010,0.012,0.010,0.037,0.027,0.041
,-0.05,-0.07!,10,2
-0.012,-0.023,0.009,0.012,0.011,0.036,0.027,0.039
,0.10,-0.08!,10,2
-0.013,-0.023,0.009,0.012,0.011,0.035,0.025,0.042
,0.30,-0.08!,10,2
-0.013,-0.023,0.009,0.012,0.010,0.036,0.024,0.043
,0.37,-0.08!,10,2
-0.013,-0.023,0.008,0.012,0.010,0.037,0.024,0.042
,0.24,-0.07!,10,2
-0.013,-0.023,0.008,0.012,0.010,0.036,0.024,0.042
,0.02,-0.05!,10,2
-0.013,-0.023,0.008,0.012,0.010,0.036,0.026,0.041
,-0.08,-0.05!,10,2
-0.013,-0.023,0.008,0.012,0.010,0.035,0.026,0.041
,-0.08,-0.06!,10,2
-0.013,-0.023,0.008,0.011,0.009,0.035,0.026,0.041
,-0.05,-0.08!,10,2
-0.013,-0.023,0.008,0.010,0.009,0.035,0.026,0.041
,-0.03,-0.09!,10,2
-0.013,-0.023,0.007,0.010,0.009,0.035,0.025,0.042
,-0.02,-0.09!,10,2
-0.013,-0.023,0.007,0.010,0.010,0.035,0.025,0.043
,-0.02,-0.09!,10,2
-0.013,-0.023,0.007,0.010,0.010,0.035,0.025,0.041
,-0.03,-0.09!,10,2
-0.013,-0.023,0.007,0.010,0.009,0.036,0.025,0.041
,-0.04,-0.08!,10,2
-0.013,-0.023,0.007,0.010,0.009,0.035,0.025,0.042
,-0.04,-0.08!,10,2
-0.013,-0.023,0.007,0.010,0.009,0.035,0.025,0.042
,-0.04,-0.08!,10,2
-0.013,-0.023,0.007,0.011,0.009,0.036,0.024,0.041
,-0.04,-0.08!,10,2
-0.013,-0.023,0.007,0.010,0.009,0.035,0.025,0.042
,-0.05,-0.07!,10,2
-0.013,-0.023,0.007,0.010,0.009,0.036,0.025,0.041
,-0.05,-0.07!,10,2
-0.013,-0.023,0.007,0.011,0.009,0.036,0.025,0.042
,-0.04,-0.07!,10,2
-0.013,-0.023,0.007,0.011,0.010,0.035,0.024,0.041
,-0.04,-0.08!,10,2
-0.013,-0.023,0.007,0.011,0.008,0.035,0.024,0.041
,-0.05,-0.08!,10,2
-0.013,-0.023,0.007,0.012,0.008,0.035,0.024,0.040
,-0.06,-0.07!,10,2
-0.013,-0.023,0.008,0.012,0.008,0.033,0.024,0.039
,-0.05,-0.07!,10,2
-0.013,-0.023,0.008,0.013,0.008,0.033,0.025,0.040
,-0.05,-0.07!,10,2
-0.013,-0.023,0.008,0.013,0.009,0.034,0.025,0.040
,-0.05,-0.08!,10,2
-0.013,-0.023,0.008,0.013,0.009,0.033,0.025,0.039
,-0.05,-0.09!,10,2
-0.013,-0.023,0.008,0.013,0.010,0.033,0.025,0.039
,-0.06,-0.10!,10,2
-0.013,-0.023,0.007,0.013,0.010,0.032,0.024,0.040
,-0.06,-0.10!,10,2
-0.013,-0.023,0.008,0.013,0.010,0.033,0.026,0.039
,-0.06,-0.11!,10,2
-0.013,-0.023,0.008,0.014,0.009,0.033,0.027,0.039
,-0.06,-0.12!,10,2
-0.013,-0.023,0.008,0.014,0.010,0.032,0.027,0.039
,-0.07,-0.12!,10,2
-0.013,-0.023,0.010,0.014,0.010,0.031,0.028,0.039
,-0.07,-0.12!,10,2
-0.013,-0.023,0.009,0.014,0.011,0.032,0.028,0.040
,-0.07,-0.14!,10,2
-0.013,-0.023,0.009,0.013,0.011,0.032,0.027,0.040
,-0.06,-0.15!,10,2
-0.013,-0.023,0.009,0.013,0.011,0.030,0.028,0.039
,-0.05,-0.15!,10,2
-0.013,-0.023,0.009,0.014,0.012,0.031,0.028,0.039
,-0.05,-0.14!,10,2
-0.013,-0.023,0.009,0.014,0.011,0.032,0.026,0.039
,-0.06,-0.13!,10,2
-0.013,-0.023,0.009,0.014,0.010,0.033,0.027,0.039
,-0.07,-0.11!,10,2
-0.013,-0.023,0.008,0.016,0.010,0.034,0.027,0.039
,-0.07,-0.10!,10,2
-0.013,-0.023,0.010,0.015,0.010,0.035,0.026,0.041
,-0.08,-0.10!,10,2
-0.013,-0.023,0.011,0.016,0.009,0.036,0.025,0.042
,-0.06,-0.09!,10,2
-0.013,-0.023,0.009,0.015,0.010,0.036,0.025,0.043
,-0.03,-0.08!,10,2
-0.013,-0.023,0.009,0.015,0.008,0.035,0.025,0.042
,-0.03,-0.07!,10,2
-0.013,-0.023,0.009,0.015,0.008,0.036,0.023,0.042
,-0.05,-0.07!,10,2
-0.013,-0.023,0.009,0.016,0.007,0.037,0.023,0.041
,-0.06,-0.06!,10,2
-0.013,-0.023,0.009,0.015,0.006,0.036,0.023,0.042
,-0.06,-0.05!,10,2
-0.013,-0.023,0.009,0.016,0.007,0.037,0.023,0.041
,-0.05,-0.05!,10,2
-0.013,-0.023,0.010,0.016,0.007,0.036,0.023,0.042
,-0.05,-0.05!,10,2
-0.013,-0.023,0.010,0.015,0.007,0.035,0.023,0.042
,-0.05,-0.05!,10,2
-0.013,-0.023,0.008,0.014,0.008,0.034,0.024,0.040
,-0.04,-0.06!,10,2
-0.013,-0.023,0.008,0.014,0.008,0.034,0.024,0.039
,-0.04,-0.07!,10,2
-0.013,-0.023,0.008,0.015,0.008,0.034,0.024,0.040
,-0.06,-0.07!,10,2
-0.013,-0.023,0.008,0.014,0.008,0.034,0.024,0.039
,-0.08,-0.07!,10,2
-0.013,-0.023,0.008,0.015,0.008,0.034,0.025,0.041
,-0.08,-0.07!,10,2
-0.013,-0.023,0.008,0.014,0.008,0.034,0.025,0.042
,-0.08,-0.08!,10,2
-0.013,-0.023,0.008,0.014,0.007,0.035,0.025,0.043
,-0.07,-0.08!,10,2
-0.013,-0.023,0.008,0.014,0.010,0.033,0.025,0.044
,-0.06,-0.08!,10,2
-0.013,-0.023,0.008,0.013,0.010,0.034,0.023,0.044
,-0.06,-0.09!,10,2
-0.013,-0.023,0.008,0.013,0.010,0.034,0.026,0.044
,-0.06,-0.10!,10,2
-0.013,-0.023,0.007,0.014,0.010,0.034,0.025,0.045
,-0.06,-0.12!,10,2
-0.013,-0.023,0.007,0.014,0.010,0.035,0.025,0.044
,-0.08,-0.12!,10,2
-0.013,-0.023,0.007,0.014,0.010,0.034,0.025,0.045
,-0.09,-0.11!,10,2
-0.013,-0.023,0.008,0.014,0.010,0.035,0.026,0.045
,-0.09,-0.11!,10,2
-0.013,-0.023,0.008,0.014,0.010,0.034,0.027,0.044
,-0.07,-0.12!,10,2
-0.013,-0.023,0.008,0.014,0.011,0.034,0.027,0.044
,-0.07,-0.12!,10,2
-0.012,-0.023,0.008,0.014,0.011,0.034,0.027,0.042
,-0.07,-0.12!,10,2
-0.013,-0.023,0.008,0.014,0.009,0.035,0.026,0.042
,-0.20,-0.12!,10,2
-0.013,-0.023,0.007,0.014,0.010,0.035,0.026,0.041
,-0.27,-0.10!,10,2
-0.013,-0.023,0.007,0.015,0.009,0.034,0.024,0.043
,-0.17,-0.08!,10,2
-0.013,-0.023,0.007,0.015,0.009,0.035,0.027,0.043
,-0.10,-0.07!,10,2
-0.013,-0.023,0.006,0.015,0.009,0.036,0.026,0.042
,-0.08,-0.07!,10,2
-0.013,-0.023,0.007,0.015,0.010,0.036,0.025,0.040
,-0.09,-0.08!,10,2
-0.012,-0.023,0.007,0.016,0.009,0.037,0.024,0.040
,-0.10,-0.07!,10,2
-0.013,-0.023,0.007,0.015,0.010,0.037,0.025,0.040
,-0.23,-0.05!,10,2
-0.012,-0.023,0.007,0.015,0.009,0.037,0.025,0.040
,-0.30,-0.05!,10,2
-0.013,-0.023,0.006,0.014,0.010,0.037,0.024,0.040
,-0.18,-0.05!,10,2
-0.013,-0.023,0.007,0.015,0.009,0.036,0.024,0.040
,-0.09,-0.05!,10,2
-0.012,-0.023,0.007,0.014,0.009,0.036,0.027,0.040
,-0.06,-0.05!,10,2
-0.012,-0.023,0.007,0.015,0.009,0.036,0.026,0.038
,-0.19,-0.06!,10,2
-0.012,-0.023,0.007,0.014,0.009,0.035,0.024,0.039
,-0.28,-0.07!,10,2
-0.012,-0.023,0.008,0.014,0.009,0.034,0.025,0.040
,-0.17,-0.08!,10,2
-0.012,-0.023,0.007,0.015,0.009,0.034,0.026,0.039
,-0.09,-0.09!,10,2
-0.012,-0.023,0.009,0.016,0.010,0.034,0.025,0.041
,-0.09,-0.09!,10,2
-0.013,-0.023,0.009,0.017,0.009,0.034,0.024,0.041
,-0.10,-0.09!,10,2
-0.013,-0.023,0.009,0.019,0.009,0.033,0.025,0.041
,0.05,-0.09!,10,2
-0.012,-0.023,0.009,0.022,0.009,0.034,0.025,0.042
,0.11,-0.09!,10,2
-0.012,-0.023,0.009,0.023,0.009,0.034,0.026,0.041
,-0.22,-0.09!,10,2
-0.012,-0.023,0.009,0.025,0.008,0.033,0.024,0.042
,-0.43,-0.10!,10,2
-0.012,-0.023,0.010,0.025,0.010,0.034,0.023,0.041
,-0.30,-0.10!,10,2
-0.012,-0.023,0.010,0.026,0.010,0.034,0.024,0.040
,-0.19,-0.08!,10,2
-0.012,-0.023,0.010,0.027,0.011,0.034,0.022,0.042
,-0.16,-0.06!,10,2
-0.012,-0.023,0.010,0.028,0.011,0.034,0.022,0.043
,-0.18,-0.05!,10,2
-0.012,-0.023,0.008,0.028,0.011,0.035,0.022,0.042
,-0.20,-0.05!,10,2
-0.012,-0.023,0.008,0.029,0.011,0.035,0.021,0.041
,-0.23,-0.05!,10,2
-0.012,-0.023,0.009,0.029,0.011,0.035,0.021,0.041
,-0.25,-0.04!,10,2
-0.012,-0.023,0.009,0.029,0.011,0.036,0.022,0.040
,-0.25,-0.03!,10,2
-0.012,-0.023,0.008,0.028,0.012,0.035,0.021,0.041
,-0.24,-0.02!,10,2
-0.012,-0.023,0.010,0.028,0.013,0.036,0.022,0.041
,-0.22,-0.01!,10,2
-0.012,-0.023,0.009,0.028,0.011,0.035,0.023,0.041
,-0.20,-0.02!,10,2
-0.012,-0.023,0.009,0.028,0.012,0.035,0.024,0.042
,-0.20,-0.04!,10,2
-0.012,-0.023,0.009,0.028,0.012,0.036,0.025,0.040
,-0.22,-0.06!,10,2
-0.012,-0.023,0.009,0.028,0.011,0.036,0.026,0.042
,-0.23,-0.07!,10,2
-0.012,-0.023,0.010,0.028,0.011,0.035,0.027,0.041
,-0.24,-0.08!,10,2
-0.012,-0.023,0.010,0.028,0.011,0.034,0.026,0.041
,-0.23,-0.10!,10,2
-0.012,-0.023,0.010,0.027,0.012,0.035,0.026,0.042
,-0.21,-0.11!,10,2
-0.013,-0.023,0.010,0.027,0.012,0.035,0.025,0.042
,-0.20,-0.11!,10,2
-0.012,-0.023,0.010,0.027,0.013,0.035,0.028,0.042
,-0.01,-0.11!,10,2
-0.012,-0.023,0.009,0.027,0.012,0.037,0.026,0.042
,0.10,-0.11!,10,2
-0.012,-0.023,0.009,0.027,0.012,0.036,0.026,0.042
,-0.09,-0.10!,10,2
-0.012,-0.023,0.009,0.027,0.011,0.036,0.026,0.042
,-0.22,-0.08!,10,2
-0.012,-0.023,0.009,0.027,0.012,0.037,0.026,0.041
,-0.25,-0.08!,10,2
-0.013,-0.023,0.010,0.027,0.012,0.037,0.025,0.040
,-0.24,-0.08!,10,2
-0.012,-0.023,0.010,0.027,0.012,0.037,0.025,0.043
,-0.22,-0.07!,10,2
-0.013,-0.023,0.010,0.027,0.012,0.038,0.025,0.044
,-0.20,-0.07!,10,2
-0.012,-0.023,0.010,0.028,0.013,0.037,0.025,0.043
,-0.20,-0.06!,10,2
-0.012,-0.023,0.010,0.028,0.013,0.037,0.025,0.043
,-0.21,-0.06!,10,2
-0.012,-0.023,0.010,0.027,0.012,0.038,0.025,0.043
,-0.22,-0.06!,10,2
-0.012,-0.023,0.010,0.028,0.012,0.037,0.025,0.042
,-0.22,-0.07!,10,2
-0.013,-0.023,0.009,0.028,0.012,0.037,0.026,0.043
,-0.23,-0.07!,10,2
-0.013,-0.023,0.009,0.029,0.012,0.037,0.026,0.043
,-0.05,-0.08!,10,2
-0.013,-0.023,0.010,0.029,0.011,0.035,0.027,0.044
,0.06,-0.09!,10,2
-0.013,-0.023,0.009,0.028,0.012,0.037,0.027,0.044
,-0.12,-0.09!,10,2
-0.013,-0.023,0.008,0.028,0.013,0.036,0.028,0.041
,-0.25,-0.09!,10,2
-0.013,-0.023,0.008,0.027,0.013,0.036,0.028,0.041
,-0.28,-0.09!,10,2
-0.013,-0.023,0.008,0.027,0.010,0.037,0.028,0.043
,-0.26,-0.10!,10,2
-0.013,-0.023,0.008,0.026,0.011,0.036,0.028,0.043
,-0.24,-0.11!,10,2
-0.013,-0.023,0.009,0.027,0.011,0.035,0.027,0.043
,-0.23,-0.11!,10,2
-0.013,-0.023,0.009,0.026,0.012,0.036,0.027,0.043
,-0.23,-0.10!,10,2
-0.013,-0.023,0.008,0.026,0.013,0.036,0.026,0.042
,-0.22,-0.09!,10,2
-0.013,-0.023,0.009,0.025,0.013,0.036,0.025,0.043
,-0.22,-0.08!,10,2
-0.013,-0.023,0.007,0.025,0.013,0.037,0.024,0.042
,-0.21,-0.07!,10,2
-0.013,-0.023,0.008,0.025,0.012,0.036,0.025,0.042
,-0.20,-0.06!,10,2
-0.013,-0.023,0.008,0.025,0.012,0.035,0.024,0.042
,-0.21,-0.06!,10,2
-0.013,-0.023,0.008,0.025,0.012,0.036,0.024,0.043
,-0.21,-0.06!,10,2
-0.013,-0.023,0.009,0.026,0.011,0.035,0.025,0.042
,-0.22,-0.06!,10,2
-0.013,-0.023,0.010,0.025,0.012,0.036,0.024,0.040
,-0.21,-0.07!,10,2
-0.013,-0.023,0.009,0.024,0.013,0.035,0.024,0.042
,-0.19,-0.07!,10,2
-0.013,-0.023,0.009,0.023,0.013,0.034,0.023,0.042
,-0.17,-0.07!,10,2
-0.013,-0.023,0.009,0.022,0.012,0.034,0.024,0.042
,-0.17,-0.08!,10,2
-0.013,-0.023,0.008,0.021,0.011,0.035,0.025,0.041
,-0.17,-0.08!,10,2
-0.013,-0.023,0.008,0.020,0.012,0.034,0.025,0.041
,-0.17,-0.08!,10,2
-0.013,-0.023,0.008,0.019,0.011,0.034,0.025,0.041
,-0.16,-0.08!,10,2
-0.013,-0.023,0.008,0.017,0.011,0.035,0.025,0.042
,-0.14,-0.09!,10,2
-0.013,-0.023,0.009,0.016,0.011,0.035,0.024,0.041
,-0.11,-0.09!,10,2
-0.013,-0.023,0.009,0.014,0.012,0.034,0.024,0.040
,-0.07,-0.08!,10,2
-0.013,-0.023,0.009,0.014,0.011,0.034,0.024,0.041
,-0.05,-0.07!,10,2
-0.013,-0.023,0.009,0.014,0.012,0.034,0.024,0.040
,-0.06,-0.07!,10,2
-0.013,-0.023,0.008,0.014,0.011,0.034,0.023,0.041
,-0.07,-0.07!,10,2
-0.013,-0.023,0.009,0.015,0.011,0.033,0.023,0.040
,-0.09,-0.07!,10,2
-0.013,-0.023,0.009,0.015,0.011,0.033,0.027,0.041
,-0.09,-0.07!,10,2
-0.013,-0.023,0.009,0.015,0.011,0.033,0.026,0.042
,-0.08,-0.08!,10,2
-0.013,-0.023,0.009,0.015,0.011,0.033,0.026,0.042
,-0.07,-0.10!,10,2
-0.013,-0.023,0.009,0.015,0.011,0.033,0.026,0.041
,-0.07,-0.11!,10,2
-0.013,-0.023,0.008,0.015,0.011,0.033,0.027,0.041
,-0.08,-0.11!,10,2
-0.013,-0.023,0.007,0.015,0.011,0.034,0.026,0.042
,-0.09,-0.11!,10,2
-0.012,-0.023,0.008,0.015,0.011,0.035,0.027,0.040
,-0.09,-0.10!,10,2
-0.012,-0.023,0.008,0.016,0.009,0.035,0.028,0.042
,-0.09,-0.10!,10,2
-0.012,-0.023,0.008,0.015,0.009,0.035,0.028,0.041
,-0.09,-0.11!,10,2
-0.012,-0.023,0.009,0.015,0.009,0.036,0.028,0.042
,-0.09,-0.12!,10,2
-0.012,-0.023,0.009,0.015,0.009,0.035,0.024,0.042
,-0.08,-0.12!,10,2
-0.013,-0.023,0.009,0.015,0.010,0.035,0.024,0.040
,-0.07,-0.10!,10,2
-0.012,-0.023,0.010,0.015,0.010,0.035,0.025,0.040
,-0.06,-0.08!,10,2
-0.012,-0.023,0.009,0.015,0.012,0.035,0.025,0.041
,-0.05,-0.07!,10,2
-0.012,-0.023,0.009,0.015,0.013,0.035,0.024,0.041
,-0.06,-0.07!,10,2
-0.012,-0.023,0.009,0.015,0.013,0.035,0.024,0.043
,-0.07,-0.08!,10,2
-0.012,-0.023,0.009,0.016,0.014,0.034,0.024,0.044
,-0.08,-0.08!,10,2
-0.012,-0.023,0.010,0.016,0.015,0.035,0.024,0.041
,-0.09,-0.08!,10,2
-0.012,-0.023,0.010,0.016,0.015,0.034,0.025,0.042
,-0.09,-0.08!,10,2
-0.012,-0.023,0.009,0.015,0.016,0.033,0.025,0.041
,-0.08,-0.08!,10,2
-0.012,-0.023,0.009,0.015,0.016,0.034,0.025,0.042
,-0.08,-0.09!,10,2
-0.012,-0.023,0.009,0.015,0.016,0.034,0.024,0.042
,-0.09,-0.08!,10,2
-0.012,-0.023,0.008,0.015,0.016,0.036,0.024,0.041
,-0.10,-0.07!,10,2
-0.012,-0.023,0.008,0.015,0.015,0.035,0.025,0.040
,-0.11,-0.06!,10,2
-0.012,-0.023,0.008,0.016,0.014,0.036,0.026,0.042
,-0.11,-0.06!,10,2
-0.012,-0.023,0.009,0.016,0.014,0.036,0.027,0.040
,-0.11,-0.07!,10,2
-0.012,-0.023,0.009,0.016,0.013,0.035,0.026,0.040
,-0.11,-0.09!,10,2
-0.012,-0.023,0.009,0.015,0.013,0.034,0.026,0.041
,-0.09,-0.10!,10,2
-0.013,-0.023,0.009,0.015,0.012,0.035,0.026,0.040
,-0.08,-0.10!,10,2
-0.012,-0.023,0.009,0.016,0.011,0.035,0.026,0.040
,0.06,-0.09!,10,2
-0.012,-0.023,0.009,0.016,0.011,0.036,0.025,0.039
,0.14,-0.08!,10,2
-0.012,-0.023,0.008,0.015,0.011,0.037,0.025,0.038
,-0.00,-0.07!,10,2
-0.012,-0.023,0.009,0.016,0.011,0.036,0.026,0.040
,-0.11,-0.06!,10,2
-0.012,-0.023,0.009,0.016,0.010,0.036,0.024,0.042
,-0.13,-0.06!,10,2
-0.012,-0.023,0.010,0.015,0.011,0.035,0.023,0.040
,-0.10,-0.06!,10,2
-0.012,-0.023,0.010,0.015,0.011,0.035,0.022,0.042
,-0.07,-0.06!,10,2
-0.012,-0.023,0.010,0.014,0.011,0.037,0.024,0.042
,-0.04,-0.04!,10,2
-0.013,-0.023,0.008,0.015,0.010,0.037,0.023,0.042
,-0.05,-0.03!,10,2
-0.012,-0.023,0.009,0.015,0.010,0.036,0.023,0.042
,0.06,-0.03!,10,2
-0.012,-0.023,0.009,0.017,0.009,0.036,0.023,0.043
,0.12,-0.04!,10,2
-0.012,-0.023,0.009,0.017,0.009,0.036,0.024,0.043
,-0.01,-0.05!,10,2
-0.012,-0.023,0.009,0.018,0.009,0.034,0.026,0.043
,-0.10,-0.07!,10,2
-0.012,-0.023,0.010,0.019,0.010,0.034,0.026,0.042
,-0.11,-0.10!,10,2
-0.013,-0.023,0.011,0.019,0.010,0.035,0.026,0.041
,-0.10,-0.11!,10,2
-0.013,-0.023,0.010,0.019,0.010,0.035,0.025,0.041
,-0.09,-0.10!,10,2
-0.012,-0.023,0.009,0.020,0.010,0.036,0.026,0.040
,-0.10,-0.09!,10,2
-0.012,-0.023,0.009,0.020,0.010,0.034,0.025,0.040
,-0.27,-0.10!,10,2
-0.012,-0.023,0.009,0.021,0.009,0.034,0.025,0.039
,-0.37,-0.10!,10,2
-0.012,-0.023,0.009,0.021,0.009,0.035,0.024,0.038
,-0.23,-0.09!,10,2
-0.013,-0.023,0.010,0.020,0.009,0.036,0.025,0.039
,-0.12,-0.07!,10,2
-0.012,-0.023,0.010,0.021,0.009,0.035,0.025,0.039
,0.07,-0.07!,10,2
-0.013,-0.023,0.010,0.020,0.011,0.036,0.024,0.038
,0.16,-0.07!,10,2
-0.012,-0.023,0.010,0.020,0.011,0.036,0.024,0.040
,-0.01,-0.06!,10,2
-0.012,-0.023,0.008,0.020,0.011,0.035,0.025,0.041
,-0.12,-0.06!,10,2
-0.013,-0.023,0.009,0.020,0.010,0.035,0.025,0.042
,-0.14,-0.07!,10,2
-0.012,-0.023,0.009,0.020,0.010,0.035,0.025,0.042
,0.02,-0.08!,10,2
-0.012,-0.023,0.009,0.020,0.010,0.035,0.024,0.041
,0.11,-0.08!,10,2
-0.012,-0.023,0.010,0.020,0.010,0.035,0.024,0.042
,-0.02,-0.08!,10,2
-0.013,-0.023,0.010,0.020,0.010,0.035,0.025,0.043
,-0.11,-0.07!,10,2
-0.012,-0.023,0.008,0.021,0.012,0.035,0.024,0.043
,-0.14,-0.07!,10,2
-0.013,-0.023,0.009,0.021,0.013,0.034,0.023,0.043
,-0.17,-0.07!,10,2
-0.012,-0.023,0.009,0.020,0.012,0.033,0.023,0.046
,-0.17,-0.08!,10,2
-0.013,-0.023,0.008,0.020,0.011,0.034,0.024,0.045
,-0.15,-0.09!,10,2
-0.013,-0.023,0.008,0.020,0.011,0.034,0.022,0.043
,-0.14,-0.07!,10,2
-0.013,-0.023,0.008,0.020,0.011,0.035,0.023,0.042
,-0.14,-0.05!,10,2
-0.012,-0.023,0.009,0.020,0.010,0.035,0.024,0.042
,-0.14,-0.05!,10,2
-0.012,-0.023,0.009,0.020,0.011,0.035,0.023,0.043
,-0.13,-0.06!,10,2
-0.012,-0.023,0.008,0.020,0.012,0.035,0.023,0.042
,-0.14,-0.07!,10,2
-0.012,-0.023,0.008,0.020,0.012,0.035,0.023,0.041
,-0.15,-0.06!,10,2
-0.012,-0.023,0.008,0.019,0.011,0.035,0.023,0.040
,-0.16,-0.06!,10,2
-0.013,-0.023,0.008,0.019,0.010,0.037,0.024,0.040
,-0.15,-0.04!,10,2
-0.012,-0.023,0.008,0.020,0.009,0.037,0.024,0.039
,-0.14,-0.03!,10,2
-0.012,-0.023,0.008,0.020,0.009,0.036,0.025,0.039
,-0.13,-0.04!,10,2
-0.013,-0.023,0.008,0.020,0.009,0.036,0.026,0.039
,-0.14,-0.06!,10,2
-0.012,-0.023,0.008,0.020,0.009,0.036,0.026,0.039
,0.01,-0.08!,10,2
-0.012,-0.023,0.009,0.020,0.009,0.036,0.026,0.039
,0.09,-0.08!,10,2
-0.013,-0.023,0.009,0.020,0.008,0.036,0.026,0.039
,-0.04,-0.08!,10,2
-0.012,-0.023,0.009,0.020,0.008,0.037,0.026,0.039
,0.02,-0.07!,10,2
-0.012,-0.023,0.009,0.020,0.008,0.037,0.025,0.039
,0.09,-0.07!,10,2
-0.012,-0.023,0.009,0.021,0.007,0.037,0.026,0.039
,-0.03,-0.07!,10,2
-0.013,-0.023,0.008,0.022,0.007,0.037,0.026,0.040
,-0.13,-0.07!,10,2
-0.013,-0.023,0.010,0.023,0.008,0.037,0.026,0.039
,-0.15,-0.07!,10,2
-0.013,-0.023,0.010,0.023,0.008,0.037,0.026,0.040
,-0.13,-0.06!,10,2
-0.012,-0.023,0.010,0.023,0.009,0.038,0.025,0.040
,-0.13,-0.06!,10,2
-0.012,-0.023,0.010,0.023,0.010,0.037,0.023,0.039
,-0.13,-0.05!,10,2
-0.012,-0.023,0.009,0.023,0.010,0.037,0.024,0.041
,-0.15,-0.06!,10,2
-0.012,-0.023,0.009,0.023,0.010,0.037,0.024,0.041
,-0.17,-0.06!,10,2
-0.013,-0.023,0.008,0.023,0.009,0.035,0.026,0.041
,-0.18,-0.06!,10,2
-0.012,-0.023,0.008,0.023,0.009,0.035,0.026,0.041
,-0.02,-0.08!,10,2
-0.012,-0.023,0.010,0.022,0.010,0.035,0.025,0.041
,0.07,-0.09!,10,2
-0.012,-0.023,0.010,0.020,0.010,0.034,0.025,0.039
,-0.06,-0.09!,10,2
-0.012,-0.023,0.009,0.018,0.010,0.035,0.024,0.041
,-0.12,-0.08!,10,2
-0.013,-0.023,0.009,0.017,0.011,0.035,0.023,0.040
,-0.11,-0.08!,10,2
-0.013,-0.023,0.008,0.016,0.011,0.034,0.023,0.041
,0.04,-0.07!,10,2
-0.012,-0.023,0.008,0.014,0.010,0.034,0.024,0.041
,0.13,-0.06!,10,2
-0.012,-0.023,0.008,0.012,0.010,0.035,0.024,0.040
,-0.10,-0.07!,10,2
-0.012,-0.023,0.008,0.010,0.010,0.036,0.025,0.039
,-0.23,-0.06!,10,2
-0.012,-0.023,0.009,0.010,0.010,0.035,0.023,0.040
,-0.13,-0.05!,10,2
-0.012,-0.023,0.009,0.009,0.011,0.036,0.024,0.039
,-0.03,-0.03!,10,2
-0.012,-0.023,0.009,0.009,0.011,0.036,0.025,0.039
,0.01,-0.04!,10,2
-0.012,-0.023,0.008,0.008,0.011,0.036,0.026,0.039
,0.01,-0.06!,10,2
-0.012,-0.023,0.008,0.009,0.011,0.035,0.027,0.038
,-0.01,-0.07!,10,2
-0.012,-0.023,0.009,0.009,0.010,0.037,0.028,0.038
,-0.02,-0.08!,10,2
-0.012,-0.023,0.008,0.009,0.010,0.036,0.029,0.040
,-0.00,-0.08!,10,2
-0.012,-0.023,0.009,0.010,0.010,0.037,0.027,0.040
,0.01,-0.10!,10,2
-0.012,-0.023,0.009,0.010,0.010,0.037,0.027,0.039
,0.01,-0.09!,10,2
-0.012,-0.023,0.008,0.010,0.010,0.036,0.028,0.040
,-0.01,-0.08!,10,2
-0.012,-0.023,0.009,0.010,0.011,0.036,0.028,0.041
,-0.03,-0.09!,10,2
-0.012,-0.023,0.008,0.009,0.010,0.037,0.027,0.041
,-0.04,-0.10!,10,2
-0.012,-0.023,0.008,0.009,0.011,0.036,0.026,0.041
,-0.03,-0.09!,10,2
-0.012,-0.023,0.008,0.009,0.010,0.036,0.024,0.041
,-0.03,-0.07!,10,2
-0.012,-0.023,0.008,0.009,0.009,0.037,0.024,0.041
,-0.01,-0.07!,10,2
-0.012,-0.023,0.009,0.009,0.008,0.035,0.023,0.041
,0.00,-0.07!,10,2
-0.012,-0.023,0.009,0.009,0.010,0.036,0.023,0.039
,0.01,-0.06!,10,2
-0.012,-0.023,0.008,0.009,0.010,0.035,0.023,0.039
,0.00,-0.06!,10,2
-0.012,-0.023,0.009,0.009,0.011,0.034,0.023,0.040
,-0.01,-0.05!,10,2
-0.012,-0.023,0.008,0.009,0.010,0.035,0.023,0.039
,-0.02,-0.05!,10,2
-0.012,-0.023,0.007,0.009,0.010,0.035,0.022,0.039
,-0.02,-0.04!,10,2
-0.012,-0.023,0.007,0.009,0.010,0.034,0.022,0.040
,-0.02,-0.04!,10,2
-0.012,-0.023,0.007,0.010,0.010,0.034,0.022,0.040
,-0.03,-0.05!,10,2
-0.012,-0.023,0.007,0.010,0.010,0.034,0.023,0.040
,-0.04,-0.05!,10,2
-0.012,-0.023,0.008,0.010,0.010,0.034,0.023,0.040
,-0.05,-0.06!,10,2
-0.012,-0.023,0.008,0.009,0.010,0.034,0.023,0.040
,-0.04,-0.06!,10,2
-0.012,-0.023,0.008,0.010,0.009,0.033,0.023,0.041
,-0.03,-0.06!,10,2
-0.012,-0.023,0.009,0.009,0.010,0.033,0.023,0.040
,-0.01,-0.07!,10,2
-0.012,-0.023,0.008,0.009,0.010,0.034,0.023,0.041
,0.00,-0.08!,10,2
-0.012,-0.023,0.008,0.008,0.010,0.033,0.022,0.041
,0.00,-0.08!,10,2
-0.012,-0.023,0.008,0.009,0.010,0.033,0.024,0.041
,-0.01,-0.09!,10,2
-0.012,-0.023,0.008,0.009,0.009,0.033,0.024,0.040
,-0.01,-0.10!,10,2
-0.012,-0.023,0.009,0.009,0.009,0.034,0.025,0.041
,-0.01,-0.10!,10,2
-0.012,-0.023,0.009,0.009,0.011,0.034,0.024,0.041
,-0.00,-0.10!,10,2
-0.012,-0.023,0.008,0.009,0.011,0.035,0.026,0.041
,0.00,-0.10!,10,2
-0.012,-0.023,0.007,0.009,0.011,0.035,0.026,0.041
,-0.01,-0.10!,10,2
-0.012,-0.023,0.008,0.009,0.010,0.035,0.025,0.041
,-0.03,-0.09!,10,2
-0.012,-0.023,0.007,0.010,0.009,0.036,0.025,0.041
,-0.04,-0.08!,10,2
-0.012,-0.023,0.007,0.011,0.009,0.037,0.025,0.042
,-0.04,-0.07!,10,2
-0.013,-0.023,0.008,0.011,0.009,0.037,0.025,0.040
,-0.05,-0.06!,10,2
-0.012,-0.023,0.009,0.011,0.009,0.037,0.024,0.040
,0.08,-0.06!,10,2
-0.012,-0.023,0.009,0.012,0.010,0.037,0.024,0.041
,0.15,-0.04!,10,2
-0.012,-0.023,0.009,0.012,0.010,0.036,0.023,0.040
,0.04,-0.04!,10,2
-0.012,-0.023,0.009,0.014,0.008,0.037,0.024,0.041
,-0.04,-0.03!,10,2
-0.012,-0.023,0.009,0.015,0.009,0.035,0.025,0.041
,-0.07,-0.03!,10,2
-0.012,-0.023,0.009,0.015,0.009,0.035,0.024,0.041
,-0.06,-0.06!,10,2
-0.012,-0.023,0.009,0.017,0.009,0.035,0.024,0.042
,-0.06,-0.08!,10,2
-0.012,-0.023,0.010,0.018,0.009,0.035,0.024,0.041
,-0.07,-0.08!,10,2
-0.012,-0.023,0.010,0.017,0.009,0.034,0.025,0.040
,-0.09,-0.08!,10,2
-0.012,-0.023,0.010,0.018,0.011,0.035,0.025,0.040
,-0.09,-0.08!,10,2
-0.012,-0.023,0.009,0.018,0.011,0.036,0.025,0.040
,-0.10,-0.07!,10,2
-0.012,-0.023,0.009,0.019,0.011,0.036,0.025,0.040
,-0.12,-0.07!,10,2
-0.012,-0.023,0.009,0.020,0.011,0.036,0.025,0.042
,-0.13,-0.07!,10,2
-0.012,-0.023,0.009,0.021,0.011,0.037,0.024,0.040
,-0.13,-0.07!,10,2
-0.012,-0.023,0.009,0.023,0.011,0.037,0.023,0.041
,-0.14,-0.05!,10,2
-0.012,-0.023,0.009,0.025,0.011,0.036,0.023,0.041
,-0.16,-0.04!,10,2
-0.012,-0.023,0.009,0.026,0.011,0.036,0.023,0.039
,-0.19,-0.04!,10,2
-0.012,-0.023,0.010,0.028,0.012,0.035,0.023,0.038
,-0.21,-0.04!,10,2
-0.012,-0.023,0.010,0.029,0.012,0.034,0.023,0.039
,-0.23,-0.05!,10,2
-0.012,-0.023,0.010,0.030,0.012,0.034,0.022,0.041
,-0.23,-0.06!,10,2
-0.012,-0.023,0.010,0.031,0.012,0.035,0.022,0.040
,-0.24,-0.06!,10,2
-0.012,-0.023,0.010,0.031,0.011,0.034,0.024,0.039
,-0.24,-0.05!,10,2
-0.012,-0.023,0.010,0.031,0.011,0.034,0.025,0.038
,-0.24,-0.06!,10,2
-0.012,-0.023,0.010,0.031,0.012,0.034,0.026,0.040
,-0.24,-0.08!,10,2
-0.012,-0.023,0.012,0.030,0.011,0.034,0.025,0.039
,-0.23,-0.08!,10,2
-0.012,-0.023,0.013,0.029,0.012,0.035,0.026,0.039
,-0.20,-0.08!,10,2
-0.012,-0.023,0.012,0.027,0.012,0.035,0.027,0.041
,-0.18,-0.08!,10,2
-0.012,-0.023,0.011,0.026,0.011,0.035,0.027,0.042
,-0.17,-0.10!,10,2
-0.012,-0.023,0.011,0.025,0.011,0.036,0.027,0.041
,-0.16,-0.11!,10,2
-0.012,-0.023,0.012,0.025,0.010,0.035,0.027,0.041
,-0.15,-0.11!,10,2
-0.012,-0.023,0.011,0.025,0.010,0.033,0.027,0.041
,-0.15,-0.11!,10,2
-0.012,-0.023,0.011,0.025,0.010,0.033,0.027,0.042
,-0.15,-0.11!,10,2
-0.012,-0.023,0.011,0.025,0.010,0.034,0.028,0.042
,-0.15,-0.12!,10,2
-0.012,-0.023,0.011,0.026,0.010,0.034,0.027,0.042
,-0.16,-0.13!,10,2
-0.012,-0.023,0.010,0.025,0.010,0.034,0.026,0.042
,-0.17,-0.12!,10,2
-0.012,-0.023,0.009,0.025,0.010,0.036,0.025,0.043
,-0.18,-0.10!,10,2
-0.012,-0.023,0.009,0.026,0.010,0.036,0.024,0.042
,-0.18,-0.07!,10,2
-0.012,-0.023,0.009,0.027,0.010,0.037,0.024,0.041
,-0.19,-0.05!,10,2
-0.012,-0.023,0.008,0.026,0.010,0.037,0.024,0.042
,-0.22,-0.04!,10,2
-0.012,-0.023,0.009,0.027,0.010,0.037,0.024,0.042
,-0.23,-0.05!,10,2
-0.012,-0.023,0.009,0.027,0.010,0.038,0.023,0.043
,-0.23,-0.05!,10,2
-0.012,-0.023,0.009,0.027,0.011,0.038,0.025,0.043
,-0.22,-0.04!,10,2
-0.012,-0.023,0.009,0.027,0.012,0.038,0.022,0.042
,-0.22,-0.02!,10,2
-0.012,-0.023,0.009,0.027,0.012,0.037,0.023,0.042
,-0.22,-0.01!,10,2
-0.012,-0.023,0.008,0.027,0.011,0.039,0.023,0.042
,-0.23,-0.02!,10,2
-0.012,-0.023,0.009,0.027,0.011,0.037,0.024,0.041
,-0.24,-0.04!,10,2
-0.012,-0.023,0.009,0.027,0.011,0.036,0.024,0.042
,-0.23,-0.05!,10,2
-0.012,-0.023,0.010,0.026,0.011,0.035,0.024,0.042
,-0.22,-0.06!,10,2
-0.012,-0.023,0.010,0.026,0.012,0.036,0.024,0.042
,-0.20,-0.07!,10,2
-0.012,-0.023,0.009,0.026,0.013,0.036,0.025,0.043
,-0.19,-0.07!,10,2
-0.012,-0.023,0.009,0.025,0.012,0.036,0.025,0.042
,-0.20,-0.07!,10,2
-0.012,-0.023,0.009,0.025,0.011,0.036,0.023,0.043
,-0.20,-0.07!,10,2
-0.012,-0.023,0.009,0.025,0.011,0.036,0.024,0.044
,-0.19,-0.07!,10,2
-0.012,-0.023,0.008,0.025,0.011,0.036,0.024,0.043
,-0.19,-0.07!,10,2
-0.012,-0.023,0.009,0.024,0.011,0.034,0.025,0.044
,-0.19,-0.08!,10,2
-0.012,-0.023,0.009,0.023,0.010,0.034,0.023,0.044
,-0.17,-0.09!,10,2
-0.012,-0.023,0.009,0.022,0.011,0.036,0.024,0.043
,-0.16,-0.10!,10,2
-0.012,-0.023,0.009,0.022,0.010,0.035,0.023,0.044
,-0.15,-0.09!,10,2
-0.012,-0.023,0.009,0.021,0.010,0.034,0.024,0.042
,-0.15,-0.08!,10,2
-0.012,-0.023,0.009,0.021,0.009,0.035,0.024,0.041
,-0.14,-0.07!,10,2
-0.012,-0.023,0.010,0.021,0.009,0.036,0.024,0.040
,-0.13,-0.07!,10,2
-0.012,-0.023,0.010,0.021,0.009,0.036,0.023,0.040
,-0.11,-0.06!,10,2
-0.012,-0.023,0.010,0.021,0.009,0.037,0.023,0.039
,-0.11,-0.05!,10,2
-0.012,-0.023,0.010,0.022,0.009,0.038,0.024,0.040
,-0.12,-0.03!,10,2
-0.012,-0.023,0.009,0.022,0.010,0.039,0.024,0.042
,-0.14,-0.03!,10,2
-0.012,-0.023,0.009,0.023,0.010,0.039,0.024,0.041
,-0.16,-0.03!,10,2
-0.012,-0.023,0.009,0.023,0.010,0.038,0.024,0.042
,-0.16,-0.03!,10,2
-0.012,-0.023,0.009,0.024,0.010,0.039,0.024,0.041
,-0.17,-0.03!,10,2
-0.012,-0.023,0.008,0.024,0.010,0.038,0.024,0.041
,-0.18,-0.03!,10,2
-0.012,-0.023,0.009,0.023,0.010,0.038,0.025,0.041
,-0.19,-0.03!,10,2
-0.012,-0.023,0.008,0.023,0.009,0.038,0.024,0.042
,-0.18,-0.03!,10,2
-0.012,-0.023,0.008,0.023,0.010,0.038,0.025,0.041
,-0.18,-0.04!,10,2
-0.012,-0.023,0.011,0.022,0.010,0.036,0.025,0.043
,-0.16,-0.05!,10,2
-0.012,-0.023,0.010,0.021,0.010,0.035,0.022,0.043
,-0.11,-0.07!,10,2
-0.012,-0.023,0.010,0.021,0.011,0.035,0.021,0.042
,-0.09,-0.07!,10,2
-0.012,-0.023,0.011,0.020,0.011,0.035,0.021,0.042
,-0.10,-0.05!,10,2
-0.012,-0.023,0.011,0.019,0.011,0.034,0.021,0.042
,-0.10,-0.03!,10,2
-0.012,-0.023,0.010,0.019,0.011,0.034,0.022,0.043
,-0.09,-0.04!,10,2
-0.012,-0.023,0.010,0.019,0.010,0.035,0.022,0.043
,-0.09,-0.05!,10,2
-0.012,-0.023,0.011,0.020,0.010,0.035,0.022,0.043
,-0.10,-0.06!,10,2
-0.012,-0.023,0.011,0.019,0.010,0.034,0.023,0.044
,-0.10,-0.06!,10,2
-0.012,-0.023,0.012,0.018,0.012,0.034,0.024,0.044
,-0.09,-0.07!,10,2
-0.012,-0.023,0.010,0.019,0.012,0.034,0.023,0.043
,-0.09,-0.08!,10,2
-0.012,-0.023,0.010,0.019,0.011,0.034,0.024,0.044
,-0.10,-0.07!,10,2
-0.012,-0.023,0.010,0.020,0.010,0.034,0.025,0.043
,-0.10,-0.08!,10,2
-0.012,-0.023,0.009,0.020,0.010,0.035,0.026,0.043
,-0.10,-0.09!,10,2
-0.012,-0.023,0.010,0.021,0.010,0.036,0.025,0.043
,-0.10,-0.09!,10,2
-0.012,-0.023,0.010,0.021,0.009,0.036,0.025,0.042
,-0.10,-0.08!,10,2
-0.012,-0.023,0.010,0.021,0.010,0.037,0.027,0.042
,-0.11,-0.08!,10,2
-0.012,-0.023,0.009,0.020,0.011,0.037,0.026,0.043
,-0.11,-0.09!,10,2
-0.012,-0.023,0.010,0.019,0.010,0.037,0.025,0.042
,-0.11,-0.09!,10,2
-0.012,-0.023,0.008,0.020,0.008,0.037,0.025,0.043
,-0.10,-0.07!,10,2
-0.012,-0.023,0.009,0.019,0.009,0.038,0.026,0.043
,-0.10,-0.06!,10,2
-0.012,-0.023,0.009,0.019,0.009,0.039,0.026,0.041
,-0.10,-0.07!,10,2
-0.012,-0.023,0.009,0.019,0.010,0.039,0.024,0.042
,-0.10,-0.05!,10,2
-0.012,-0.023,0.009,0.018,0.010,0.038,0.025,0.042
,-0.10,-0.03!,10,2
-0.012,-0.023,0.009,0.018,0.011,0.037,0.026,0.043
,-0.10,-0.04!,10,2
-0.012,-0.023,0.010,0.018,0.011,0.038,0.025,0.044
,-0.10,-0.06!,10,2
-0.012,-0.023,0.010,0.018,0.011,0.037,0.023,0.044
,-0.10,-0.06!,10,2
-0.012,-0.023,0.009,0.018,0.011,0.037,0.024,0.044
,-0.09,-0.04!,10,2
-0.012,-0.023,0.008,0.019,0.011,0.037,0.024,0.043
,-0.10,-0.04!,10,2
-0.012,-0.023,0.009,0.019,0.011,0.037,0.024,0.042
,-0.12,-0.05!,10,2
-0.012,-0.023,0.009,0.019,0.010,0.036,0.023,0.044
,-0.13,-0.05!,10,2
-0.012,-0.023,0.009,0.019,0.010,0.035,0.024,0.044
,-0.12,-0.05!,10,2
-0.012,-0.023,0.009,0.019,0.010,0.036,0.025,0.044
,-0.11,-0.07!,10,2
-0.012,-0.023,0.009,0.019,0.010,0.036,0.026,0.045
,-0.11,-0.09!,10,2
-0.012,-0.023,0.009,0.019,0.009,0.035,0.026,0.044
,-0.11,-0.09!,10,2
-0.012,-0.023,0.009,0.019,0.010,0.036,0.026,0.045
,-0.11,-0.09!,10,2
-0.012,-0.023,0.009,0.020,0.008,0.037,0.026,0.044
,-0.11,-0.09!,10,2
-0.012,-0.023,0.009,0.021,0.009,0.036,0.025,0.043
,-0.12,-0.09!,10,2
-0.012,-0.023,0.008,0.022,0.009,0.037,0.027,0.044
,-0.14,-0.10!,10,2
-0.012,-0.023,0.008,0.022,0.009,0.037,0.027,0.044
,-0.16,-0.11!,10,2
-0.012,-0.023,0.009,0.023,0.009,0.037,0.027,0.042
,-0.16,-0.10!,10,2
-0.012,-0.023,0.008,0.024,0.009,0.037,0.026,0.042
,-0.15,-0.09!,10,2
-0.012,-0.023,0.008,0.025,0.010,0.038,0.025,0.041
,-0.16,-0.07!,10,2
-0.012,-0.023,0.008,0.025,0.010,0.037,0.023,0.040
,-0.18,-0.06!,10,2
-0.012,-0.023,0.008,0.026,0.009,0.037,0.024,0.040
,-0.20,-0.05!,10,2
-0.012,-0.023,0.008,0.028,0.008,0.036,0.023,0.039
,-0.21,-0.06!,10,2
-0.012,-0.023,0.008,0.027,0.010,0.036,0.023,0.039
,-0.23,-0.05!,10,2
-0.012,-0.023,0.008,0.028,0.009,0.036,0.023,0.040
,-0.23,-0.05!,10,2
-0.012,-0.023,0.008,0.028,0.010,0.035,0.022,0.040
,-0.23,-0.04!,10,2
-0.012,-0.023,0.008,0.028,0.009,0.035,0.023,0.041
,-0.23,-0.03!,10,2
-0.012,-0.023,0.009,0.028,0.009,0.035,0.023,0.041
,-0.22,-0.04!,10,2
-0.012,-0.023,0.009,0.029,0.009,0.036,0.024,0.041
,-0.21,-0.05!,10,2
-0.012,-0.023,0.009,0.029,0.008,0.034,0.026,0.041
,-0.22,-0.06!,10,2
-0.012,-0.023,0.009,0.030,0.008,0.036,0.026,0.042
,-0.23,-0.08!,10,2
-0.012,-0.023,0.009,0.031,0.008,0.036,0.025,0.042
,-0.23,-0.08!,10,2
-0.012,-0.023,0.009,0.030,0.008,0.036,0.026,0.042
,-0.23,-0.07!,10,2
-0.012,-0.023,0.010,0.030,0.007,0.036,0.025,0.044
,-0.22,-0.07!,10,2
-0.012,-0.023,0.010,0.030,0.009,0.037,0.025,0.044
,-0.21,-0.07!,10,2
-0.012,-0.023,0.010,0.030,0.009,0.037,0.024,0.044
,-0.21,-0.06!,10,2
-0.012,-0.023,0.010,0.030,0.009,0.037,0.023,0.044
,-0.22,-0.05!,10,2
-0.012,-0.023,0.009,0.030,0.009,0.036,0.023,0.045
,-0.22,-0.05!,10,2
-0.012,-0.023,0.009,0.030,0.009,0.035,0.026,0.045
,-0.24,-0.06!,10,2
-0.012,-0.023,0.010,0.029,0.009,0.035,0.025,0.045
,-0.23,-0.08!,10,2
-0.012,-0.023,0.010,0.029,0.009,0.035,0.025,0.044
,-0.21,-0.09!,10,2
-0.012,-0.023,0.010,0.028,0.009,0.034,0.027,0.044
,-0.20,-0.10!,10,2
-0.012,-0.023,0.010,0.027,0.009,0.034,0.026,0.043
,-0.19,-0.12!,10,2
-0.012,-0.023,0.009,0.028,0.009,0.034,0.026,0.041
,-0.19,-0.12!,10,2
-0.012,-0.023,0.009,0.028,0.008,0.035,0.026,0.041
,-0.20,-0.10!,10,2
-0.012,-0.023,0.009,0.027,0.008,0.034,0.027,0.042
,-0.21,-0.10!,10,2
-0.012,-0.023,0.009,0.028,0.008,0.035,0.027,0.041
,-0.21,-0.10!,10,2
-0.012,-0.023,0.009,0.027,0.008,0.035,0.027,0.039
,-0.21,-0.10!,10,2
-0.012,-0.023,0.010,0.028,0.008,0.035,0.024,0.040
,-0.21,-0.10!,10,2
-0.012,-0.023,0.010,0.028,0.009,0.035,0.023,0.040
,-0.20,-0.08!,10,2
-0.012,-0.023,0.010,0.027,0.009,0.035,0.023,0.041
,-0.19,-0.06!,10,2
-0.012,-0.023,0.009,0.028,0.010,0.035,0.022,0.040
,-0.19,-0.04!,10,2
-0.012,-0.023,0.010,0.028,0.010,0.035,0.022,0.041
,-0.20,-0.04!,10,2
-0.012,-0.023,0.010,0.028,0.009,0.035,0.023,0.042
,-0.21,-0.04!,10,2
-0.012,-0.023,0.010,0.028,0.009,0.033,0.023,0.043
,-0.20,-0.07!,10,2
-0.012,-0.023,0.010,0.028,0.010,0.034,0.023,0.043
,-0.19,-0.09!,10,2
-0.012,-0.023,0.010,0.028,0.009,0.033,0.023,0.043
,-0.19,-0.09!,10,2
-0.012,-0.023,0.010,0.028,0.010,0.034,0.023,0.043
,-0.19,-0.09!,10,2
-0.012,-0.023,0.010,0.028,0.010,0.034,0.024,0.041
,-0.19,-0.08!,10,2
-0.012,-0.023,0.009,0.027,0.009,0.035,0.024,0.041
,-0.20,-0.08!,10,2
-0.012,-0.023,0.009,0.028,0.010,0.035,0.023,0.040
,-0.22,-0.07!,10,2
-0.012,-0.023,0.009,0.027,0.009,0.035,0.022,0.041
,-0.22,-0.06!,10,2
-0.012,-0.023,0.009,0.027,0.009,0.035,0.024,0.040
,-0.22,-0.05!,10,2
-0.012,-0.023,0.008,0.027,0.010,0.035,0.023,0.041
,-0.21,-0.04!,10,2
-0.012,-0.023,0.009,0.026,0.010,0.035,0.024,0.040
,-0.21,-0.05!,10,2
-0.012,-0.023,0.008,0.026,0.009,0.035,0.023,0.039
,-0.21,-0.05!,10,2
-0.012,-0.023,0.008,0.025,0.010,0.035,0.022,0.039
,-0.21,-0.05!,10,2
-0.012,-0.023,0.008,0.024,0.009,0.035,0.022,0.040
,-0.20,-0.04!,10,2
-0.012,-0.023,0.008,0.022,0.009,0.034,0.023,0.041
,-0.18,-0.05!,10,2
-0.012,-0.023,0.008,0.022,0.009,0.034,0.024,0.041
,-0.16,-0.06!,10,2
-0.012,-0.023,0.008,0.021,0.010,0.035,0.024,0.042
,-0.15,-0.08!,10,2
-0.012,-0.023,0.009,0.020,0.010,0.034,0.024,0.041
,-0.14,-0.07!,10,2
-0.012,-0.023,0.009,0.019,0.012,0.034,0.024,0.041
,-0.12,-0.07!,10,2
-0.012,-0.023,0.008,0.017,0.012,0.035,0.024,0.039
,-0.12,-0.07!,10,2
-0.012,-0.023,0.007,0.017,0.012,0.035,0.023,0.042
,-0.13,-0.07!,10,2
-0.012,-0.023,0.008,0.017,0.012,0.035,0.024,0.043
,-0.12,-0.07!,10,2
-0.012,-0.023,0.007,0.017,0.011,0.036,0.024,0.042
,-0.11,-0.07!,10,2
-0.012,-0.023,0.007,0.018,0.011,0.036,0.024,0.042
,-0.11,-0.07!,10,2
-0.012,-0.023,0.008,0.018,0.011,0.036,0.024,0.042
,-0.12,-0.06!,10,2
-0.012,-0.023,0.009,0.018,0.011,0.035,0.025,0.043
,-0.12,-0.07!,10,2
-0.012,-0.023,0.009,0.018,0.011,0.034,0.025,0.043
,-0.11,-0.09!,10,2
-0.012,-0.023,0.009,0.019,0.011,0.034,0.025,0.044
,-0.10,-0.10!,10,2
-0.012,-0.023,0.009,0.019,0.009,0.034,0.025,0.043
,-0.10,-0.11!,10,2
-0.012,-0.023,0.009,0.019,0.010,0.034,0.025,0.044
,-0.10,-0.10!,10,2
-0.012,-0.023,0.009,0.019,0.010,0.035,0.024,0.042
,-0.11,-0.10!,10,2
-0.012,-0.023,0.009,0.020,0.009,0.034,0.025,0.042
,-0.11,-0.09!,10,2
-0.012,-0.023,0.010,0.020,0.009,0.034,0.026,0.043
,-0.11,-0.09!,10,2
-0.012,-0.023,0.010,0.020,0.010,0.035,0.026,0.042
,-0.11,-0.10!,10,2
-0.012,-0.023,0.010,0.020,0.010,0.036,0.026,0.042
,-0.11,-0.09!,10,2
-0.012,-0.023,0.009,0.020,0.011,0.036,0.025,0.042
,-0.11,-0.08!,10,2
-0.012,-0.023,0.010,0.019,0.011,0.036,0.026,0.041
,-0.12,-0.07!,10,2
-0.012,-0.023,0.009,0.020,0.010,0.036,0.025,0.041
,-0.12,-0.06!,10,2
-0.012,-0.023,0.009,0.020,0.011,0.035,0.025,0.041
,-0.12,-0.07!,10,2
-0.012,-0.023,0.009,0.020,0.011,0.035,0.026,0.041
,-0.13,-0.08!,10,2
-0.012,-0.023,0.009,0.019,0.010,0.035,0.026,0.041
,-0.12,-0.10!,10,2
-0.012,-0.023,0.010,0.019,0.011,0.036,0.026,0.040
,-0.10,-0.10!,10,2
-0.012,-0.023,0.010,0.019,0.012,0.035,0.025,0.040
,-0.09,-0.09!,10,2
-0.012,-0.023,0.010,0.018,0.011,0.035,0.025,0.041
,-0.09,-0.09!,10,2
-0.012,-0.023,0.009,0.019,0.011,0.035,0.023,0.041
,-0.10,-0.08!,10,2
-0.012,-0.023,0.009,0.019,0.011,0.035,0.025,0.042
,-0.11,-0.09!,10,2
-0.012,-0.023,0.008,0.018,0.010,0.036,0.025,0.042
,-0.11,-0.09!,10,2
-0.012,-0.023,0.009,0.018,0.010,0.036,0.026,0.042
,-0.10,-0.08!,10,2
-0.012,-0.023,0.009,0.018,0.010,0.037,0.026,0.043
,-0.09,-0.08!,10,2
-0.012,-0.023,0.009,0.018,0.009,0.036,0.026,0.042
,-0.09,-0.08!,10,2
-0.012,-0.023,0.010,0.018,0.010,0.036,0.026,0.042
,-0.10,-0.07!,10,2
-0.012,-0.023,0.009,0.017,0.011,0.035,0.027,0.041
,-0.10,-0.08!,10,2
-0.012,-0.023,0.009,0.017,0.010,0.035,0.026,0.042
,-0.10,-0.10!,10,2
-0.012,-0.023,0.010,0.018,0.010,0.036,0.026,0.041
,-0.09,-0.10!,10,2
-0.012,-0.023,0.009,0.018,0.010,0.037,0.027,0.040
,-0.07,-0.09!,10,2
-0.012,-0.023,0.009,0.018,0.010,0.038,0.026,0.040
,-0.08,-0.07!,10,2
-0.012,-0.023,0.010,0.018,0.010,0.038,0.027,0.040
,-0.09,-0.06!,10,2
-0.012,-0.023,0.009,0.018,0.010,0.038,0.029,0.039
,-0.10,-0.07!,10,2
-0.012,-0.023,0.009,0.019,0.011,0.038,0.029,0.039
,-0.11,-0.09!,10,2
-0.012,-0.023,0.009,0.019,0.012,0.038,0.028,0.040
,-0.12,-0.09!,10,2
-0.012,-0.023,0.008,0.019,0.012,0.037,0.028,0.041
,-0.12,-0.09!,10,2
-0.012,-0.023,0.008,0.020,0.011,0.038,0.027,0.041
,-0.13,-0.09!,10,2
-0.012,-0.023,0.008,0.020,0.011,0.038,0.028,0.040
,-0.14,-0.08!,10,2
-0.012,-0.023,0.008,0.020,0.010,0.038,0.028,0.041
,-0.14,-0.08!,10,2
-0.012,-0.023,0.009,0.021,0.011,0.036,0.028,0.042
,-0.15,-0.09!,10,2
-0.012,-0.023,0.009,0.022,0.011,0.035,0.027,0.042
,-0.15,-0.10!,10,2
-0.012,-0.023,0.009,0.022,0.012,0.034,0.029,0.043
,-0.15,-0.11!,10,2
-0.012,-0.023,0.009,0.023,0.013,0.034,0.026,0.042
,-0.15,-0.11!,10,2
-0.012,-0.023,0.009,0.023,0.013,0.033,0.027,0.042
,-0.16,-0.10!,10,2
-0.012,-0.023,0.009,0.024,0.013,0.034,0.026,0.041
,-0.17,-0.10!,10,2
-0.012,-0.023,0.009,0.025,0.014,0.036,0.026,0.041
,-0.18,-0.09!,10,2
-0.012,-0.023,0.009,0.025,0.014,0.035,0.026,0.042
,-0.20,-0.08!,10,2
-0.012,-0.023,0.009,0.025,0.014,0.035,0.026,0.043
,-0.20,-0.08!,10,2
-0.012,-0.023,0.010,0.025,0.014,0.035,0.026,0.042
,-0.19,-0.09!,10,2
-0.012,-0.023,0.009,0.025,0.015,0.035,0.026,0.044
,-0.18,-0.09!,10,2
-0.012,-0.023,0.009,0.025,0.015,0.034,0.026,0.043
,-0.19,-0.10!,10,2
-0.012,-0.023,0.009,0.025,0.014,0.035,0.023,0.042
,-0.20,-0.10!,10,2
-0.012,-0.023,0.009,0.024,0.014,0.035,0.024,0.042
,-0.20,-0.09!,10,2
-0.012,-0.023,0.008,0.026,0.013,0.036,0.023,0.042
,-0.20,-0.07!,10,2
-0.012,-0.023,0.009,0.026,0.013,0.036,0.023,0.041
,-0.21,-0.06!,10,2
-0.012,-0.023,0.008,0.026,0.012,0.034,0.023,0.041
,-0.20,-0.05!,10,2
-0.012,-0.023,0.009,0.026,0.013,0.034,0.023,0.041
,-0.20,-0.07!,10,2
-0.012,-0.023,0.008,0.026,0.013,0.034,0.022,0.040
,-0.19,-0.07!,10,2
-0.012,-0.023,0.008,0.026,0.013,0.034,0.022,0.041
,-0.20,-0.07!,10,2
-0.012,-0.023,0.008,0.027,0.013,0.035,0.022,0.040
,-0.22,-0.05!,10,2
-0.012,-0.023,0.008,0.027,0.013,0.036,0.023,0.040
,-0.24,-0.05!,10,2
-0.012,-0.023,0.008,0.028,0.012,0.036,0.023,0.039
,-0.24,-0.05!,10,2
-0.012,-0.023,0.008,0.028,0.012,0.036,0.022,0.040
,-0.24,-0.04!,10,2
-0.012,-0.023,0.010,0.027,0.012,0.036,0.023,0.040
,-0.24,-0.03!,10,2
-0.012,-0.023,0.009,0.027,0.012,0.035,0.025,0.041
,-0.23,-0.04!,10,2
-0.012,-0.023,0.009,0.026,0.013,0.036,0.024,0.040
,-0.21,-0.07!,10,2
-0.012,-0.023,0.009,0.026,0.013,0.036,0.024,0.039
,-0.21,-0.07!,10,2
-0.012,-0.023,0.009,0.026,0.013,0.035,0.024,0.040
,-0.20,-0.06!,10,2
-0.012,-0.023,0.008,0.026,0.013,0.035,0.025,0.040
,-0.21,-0.07!,10,2
-0.012,-0.023,0.009,0.026,0.013,0.035,0.025,0.039
,-0.22,-0.08!,10,2
-0.012,-0.023,0.009,0.027,0.013,0.034,0.024,0.040
,-0.22,-0.08!,10,2
-0.012,-0.023,0.010,0.027,0.013,0.035,0.025,0.040
,-0.21,-0.07!,10,2
-0.012,-0.023,0.010,0.027,0.014,0.035,0.025,0.040
,-0.21,-0.06!,10,2
-0.012,-0.023,0.009,0.026,0.014,0.034,0.025,0.040
,-0.20,-0.07!,10,2
-0.012,-0.023,0.009,0.027,0.015,0.034,0.024,0.040
,-0.19,-0.08!,10,2
-0.012,-0.023,0.010,0.027,0.014,0.034,0.025,0.041
,-0.21,-0.08!,10,2
-0.012,-0.023,0.010,0.027,0.013,0.036,0.025,0.042
,-0.21,-0.08!,10,2
-0.012,-0.023,0.009,0.027,0.013,0.037,0.026,0.041
,-0.21,-0.08!,10,2
-0.012,-0.023,0.010,0.027,0.013,0.037,0.026,0.041
,-0.20,-0.07!,10,2
-0.012,-0.023,0.010,0.028,0.013,0.037,0.026,0.040
,-0.20,-0.07!,10,2
-0.012,-0.023,0.010,0.027,0.014,0.037,0.026,0.040
,-0.21,-0.07!,10,2
-0.012,-0.023,0.010,0.027,0.014,0.037,0.025,0.040
,-0.21,-0.07!,10,2
-0.012,-0.023,0.010,0.026,0.013,0.037,0.025,0.040
,-0.21,-0.06!,10,2
-0.012,-0.023,0.009,0.027,0.012,0.037,0.025,0.041
,-0.20,-0.06!,10,2
-0.012,-0.023,0.010,0.026,0.012,0.038,0.026,0.041
,-0.20,-0.06!,10,2
-0.012,-0.023,0.009,0.026,0.011,0.038,0.025,0.039
,-0.19,-0.07!,10,2
-0.012,-0.023,0.011,0.026,0.012,0.036,0.025,0.037
,-0.17,-0.06!,10,2
-0.012,-0.023,0.011,0.026,0.012,0.035,0.025,0.038
,-0.15,-0.05!,10,2
-0.012,-0.023,0.011,0.025,0.013,0.035,0.025,0.039
,-0.15,-0.06!,10,2
-0.012,-0.023,0.011,0.025,0.013,0.036,0.024,0.040
,-0.16,-0.07!,10,2
-0.012,-0.023,0.011,0.024,0.015,0.035,0.024,0.041
,-0.16,-0.06!,10,2
-0.012,-0.023,0.010,0.024,0.015,0.035,0.024,0.041
,-0.16,-0.06!,10,2
-0.012,-0.023,0.010,0.024,0.015,0.034,0.025,0.040
,-0.16,-0.07!,10,2
-0.012,-0.023,0.010,0.024,0.015,0.033,0.025,0.040
,-0.17,-0.08!,10,2
-0.012,-0.023,0.009,0.023,0.015,0.033,0.024,0.040
,-0.18,-0.09!,10,2
-0.012,-0.023,0.011,0.023,0.015,0.032,0.025,0.041
,-0.19,-0.09!,10,2
-0.012,-0.023,0.009,0.023,0.015,0.032,0.025,0.041
,-0.19,-0.10!,10,2
-0.012,-0.023,0.010,0.023,0.015,0.032,0.025,0.040
,-0.19,-0.11!,10,2
-0.012,-0.023,0.009,0.022,0.014,0.032,0.025,0.039
,-0.19,-0.11!,10,2
-0.012,-0.023,0.009,0.022,0.014,0.032,0.025,0.040
,-0.18,-0.10!,10,2
-0.012,-0.023,0.009,0.023,0.012,0.033,0.026,0.038
,-0.17,-0.11!,10,2
-0.012,-0.023,0.009,0.024,0.013,0.032,0.026,0.037
,-0.17,-0.11!,10,2
-0.012,-0.023,0.009,0.023,0.012,0.036,0.027,0.038
,-0.18,-0.12!,10,2
-0.012,-0.023,0.010,0.023,0.012,0.037,0.026,0.038
,-0.18,-0.11!,10,2
-0.012,-0.023,0.011,0.023,0.012,0.037,0.028,0.039
,-0.16,-0.09!,10,2
-0.012,-0.023,0.009,0.023,0.012,0.038,0.027,0.038
,-0.14,-0.09!,10,2
-0.012,-0.023,0.009,0.024,0.012,0.038,0.026,0.039
,-0.14,-0.07!,10,2
-0.012,-0.023,0.009,0.024,0.011,0.038,0.027,0.041
,-0.16,-0.06!,10,2
-0.012,-0.023,0.009,0.025,0.010,0.038,0.026,0.040
,-0.17,-0.05!,10,2
-0.012,-0.023,0.009,0.025,0.010,0.038,0.027,0.040
,-0.18,-0.05!,10,2
-0.012,-0.023,0.010,0.023,0.010,0.038,0.027,0.040
,-0.18,-0.06!,10,2
-0.012,-0.023,0.010,0.023,0.010,0.039,0.027,0.040
,-0.16,-0.06!,10,2
-0.012,-0.023,0.010,0.023,0.012,0.036,0.026,0.039
,-0.14,-0.05!,10,2
-0.012,-0.023,0.010,0.023,0.011,0.036,0.025,0.039
,-0.14,-0.05!,10,2
-0.012,-0.023,0.009,0.023,0.012,0.035,0.024,0.039
,-0.15,-0.05!,10,2
-0.012,-0.023,0.008,0.023,0.012,0.036,0.024,0.040
,-0.17,-0.05!,10,2
-0.012,-0.023,0.008,0.023,0.011,0.035,0.026,0.039
,-0.18,-0.06!,10,2
-0.012,-0.023,0.008,0.024,0.012,0.035,0.026,0.039
,-0.19,-0.08!,10,2
-0.012,-0.023,0.009,0.024,0.012,0.035,0.027,0.039
,-0.19,-0.09!,10,2
-0.012,-0.023,0.009,0.024,0.012,0.034,0.026,0.039
,-0.18,-0.11!,10,2
-0.012,-0.023,0.008,0.024,0.013,0.033,0.026,0.039
,-0.19,-0.11!,10,2
-0.012,-0.023,0.008,0.025,0.013,0.033,0.025,0.040
,-0.20,-0.11!,10,2
-0.012,-0.023,0.008,0.025,0.011,0.032,0.026,0.041
,-0.22,-0.11!,10,2
-0.012,-0.023,0.008,0.025,0.012,0.033,0.026,0.041
,-0.22,-0.11!,10,2
-0.012,-0.023,0.008,0.024,0.012,0.034,0.026,0.040
,-0.21,-0.11!,10,2
-0.012,-0.023,0.008,0.025,0.012,0.034,0.026,0.040
,-0.21,-0.10!,10,2
-0.012,-0.023,0.009,0.026,0.012,0.034,0.025,0.041
,-0.21,-0.09!,10,2
-0.012,-0.023,0.009,0.026,0.012,0.034,0.024,0.040
,-0.20,-0.09!,10,2
-0.012,-0.023,0.009,0.025,0.012,0.034,0.024,0.041
,-0.20,-0.08!,10,2
-0.012,-0.023,0.009,0.025,0.013,0.034,0.025,0.041
,-0.20,-0.08!,10,2
-0.012,-0.023,0.009,0.025,0.013,0.034,0.025,0.042
,-0.20,-0.08!,10,2
-0.012,-0.023,0.008,0.025,0.012,0.036,0.025,0.041
,-0.20,-0.08!,10,2
-0.012,-0.023,0.008,0.025,0.012,0.036,0.025,0.040
,-0.20,-0.07!,10,2
-0.012,-0.023,0.009,0.025,0.011,0.035,0.025,0.041
,-0.20,-0.07!,10,2
-0.012,-0.023,0.009,0.025,0.011,0.035,0.025,0.041
,-0.20,-0.07!,10,2
-0.012,-0.023,0.009,0.025,0.011,0.035,0.025,0.041
,-0.19,-0.08!,10,2
-0.012,-0.023,0.008,0.024,0.011,0.035,0.025,0.042
,-0.19,-0.08!,10,2
-0.012,-0.023,0.008,0.023,0.011,0.036,0.025,0.042
,-0.20,-0.08!,10,2
-0.012,-0.023,0.007,0.023,0.012,0.036,0.025,0.041
,-0.20,-0.07!,10,2
-0.012,-0.023,0.007,0.023,0.011,0.036,0.025,0.040
,-0.20,-0.07!,10,2
-0.012,-0.023,0.007,0.023,0.011,0.036,0.025,0.040
,-0.20,-0.07!,10,2
-0.012,-0.023,0.007,0.023,0.011,0.034,0.025,0.041
,-0.20,-0.08!,10,2
-0.012,-0.023,0.008,0.024,0.011,0.035,0.026,0.040
,-0.19,-0.09!,10,2
-0.012,-0.023,0.008,0.025,0.012,0.035,0.025,0.041
,-0.19,-0.10!,10,2
-0.012,-0.023,0.009,0.026,0.012,0.034,0.025,0.041
,-0.20,-0.09!,10,2
-0.012,-0.023,0.009,0.026,0.012,0.033,0.027,0.041
,-0.20,-0.09!,10,2
-0.012,-0.023,0.008,0.028,0.012,0.034,0.028,0.039
,-0.21,-0.11!,10,2
-0.012,-0.023,0.008,0.029,0.012,0.033,0.027,0.039
,-0.23,-0.13!,10,2
-0.012,-0.023,0.009,0.030,0.012,0.034,0.028,0.039
,-0.25,-0.14!,10,2
-0.012,-0.023,0.009,0.030,0.013,0.034,0.027,0.040
,-0.25,-0.13!,10,2
-0.012,-0.023,0.009,0.031,0.013,0.035,0.027,0.040
,-0.25,-0.12!,10,2
-0.012,-0.023,0.009,0.032,0.014,0.036,0.027,0.039
,-0.27,-0.10!,10,2
-0.012,-0.023,0.008,0.032,0.015,0.036,0.025,0.039
,-0.29,-0.08!,10,2
-0.012,-0.023,0.008,0.032,0.016,0.036,0.025,0.039
,-0.31,-0.06!,10,2
-0.012,-0.023,0.007,0.032,0.016,0.037,0.025,0.040
,-0.33,-0.05!,10,2
-0.012,-0.023,0.007,0.032,0.017,0.038,0.025,0.040
,-0.34,-0.06!,10,2
-0.012,-0.023,0.007,0.032,0.017,0.037,0.023,0.040
,-0.34,-0.04!,10,2
-0.012,-0.023,0.008,0.032,0.017,0.038,0.025,0.040
,-0.34,-0.02!,10,2
-0.012,-0.023,0.008,0.031,0.017,0.037,0.024,0.040
,-0.33,-0.01!,10,2
-0.012,-0.023,0.008,0.032,0.017,0.036,0.025,0.041
,-0.32,-0.03!,10,2
-0.012,-0.023,0.008,0.032,0.017,0.035,0.026,0.040
,-0.32,-0.06!,10,2
-0.012,-0.023,0.007,0.032,0.017,0.035,0.025,0.042
,-0.32,-0.08!,10,2
-0.012,-0.023,0.007,0.031,0.016,0.034,0.025,0.044
,-0.32,-0.09!,10,2
-0.012,-0.023,0.008,0.031,0.015,0.034,0.026,0.043
,-0.32,-0.10!,10,2
-0.012,-0.023,0.008,0.032,0.016,0.033,0.024,0.042
,-0.31,-0.09!,10,2
-0.012,-0.023,0.009,0.032,0.017,0.034,0.025,0.042
,-0.30,-0.08!,10,2
-0.012,-0.023,0.009,0.032,0.016,0.033,0.025,0.042
,-0.30,-0.07!,10,2
-0.012,-0.023,0.008,0.032,0.017,0.034,0.024,0.043
,-0.30,-0.08!,10,2
-0.012,-0.023,0.008,0.032,0.017,0.034,0.024,0.043
,-0.30,-0.09!,10,2
-0.012,-0.023,0.008,0.032,0.016,0.034,0.023,0.044
,-0.31,-0.08!,10,2
-0.012,-0.023,0.008,0.032,0.017,0.033,0.024,0.044
,-0.31,-0.09!,10,2
-0.012,-0.023,0.007,0.032,0.016,0.034,0.026,0.042
,-0.31,-0.09!,10,2
-0.012,-0.023,0.008,0.033,0.016,0.035,0.027,0.041
,-0.31,-0.10!,10,2
-0.012,-0.023,0.008,0.034,0.016,0.035,0.026,0.041
,-0.31,-0.11!,10,2
-0.012,-0.023,0.008,0.034,0.015,0.036,0.027,0.042
,-0.33,-0.11!,10,2
-0.012,-0.023,0.007,0.033,0.016,0.037,0.026,0.042
,-0.33,-0.10!,10,2
-0.012,-0.023,0.008,0.033,0.015,0.037,0.026,0.043
,-0.32,-0.09!,10,2
-0.012,-0.023,0.008,0.033,0.015,0.036,0.027,0.043
,-0.31,-0.08!,10,2
-0.012,-0.023,0.007,0.034,0.015,0.036,0.027,0.044
,-0.32,-0.09!,10,2
-0.012,-0.023,0.007,0.034,0.015,0.037,0.026,0.042
,-0.34,-0.10!,10,2
-0.012,-0.023,0.007,0.034,0.015,0.038,0.025,0.044
,-0.35,-0.09!,10,2
-0.012,-0.023,0.007,0.034,0.015,0.039,0.024,0.043
,-0.35,-0.06!,10,2
-0.012,-0.023,0.008,0.034,0.015,0.039,0.023,0.042
,-0.34,-0.04!,10,2
-0.012,-0.023,0.009,0.033,0.015,0.039,0.024,0.042
,-0.32,-0.02!,10,2
-0.012,-0.023,0.008,0.033,0.015,0.038,0.023,0.042
,-0.31,-0.01!,10,2
-0.012,-0.023,0.009,0.033,0.015,0.037,0.023,0.042
,-0.32,-0.02!,10,2
-0.012,-0.023,0.008,0.033,0.015,0.038,0.023,0.042
,-0.32,-0.04!,10,2
-0.012,-0.023,0.008,0.033,0.016,0.039,0.022,0.041
,-0.33,-0.03!,10,2
-0.012,-0.023,0.009,0.032,0.015,0.038,0.022,0.040
,-0.32,-0.02!,10,2
-0.012,-0.023,0.009,0.032,0.015,0.037,0.025,0.041
,-0.30,-0.01!,10,2
-0.012,-0.023,0.009,0.032,0.016,0.037,0.025,0.039
,-0.29,-0.03!,10,2
-0.012,-0.023,0.010,0.032,0.016,0.034,0.024,0.040
,-0.29,-0.06!,10,2
-0.012,-0.023,0.009,0.031,0.016,0.036,0.024,0.041
,-0.29,-0.09!,10,2
-0.012,-0.023,0.008,0.030,0.016,0.036,0.024,0.042
,-0.29,-0.08!,10,2
-0.012,-0.023,0.009,0.028,0.016,0.036,0.024,0.042
,-0.27,-0.07!,10,2
-0.012,-0.023,0.009,0.027,0.015,0.037,0.024,0.041
,-0.25,-0.06!,10,2
-0.012,-0.023,0.009,0.025,0.016,0.037,0.025,0.040
,-0.23,-0.05!,10,2
-0.012,-0.023,0.010,0.024,0.015,0.036,0.026,0.042
,-0.21,-0.06!,10,2
-0.012,-0.023,0.010,0.022,0.015,0.037,0.027,0.041
,-0.19,-0.08!,10,2
-0.012,-0.023,0.010,0.020,0.015,0.037,0.024,0.040
,-0.16,-0.09!,10,2
-0.012,-0.023,0.009,0.017,0.014,0.037,0.024,0.041
,-0.14,-0.08!,10,2
-0.012,-0.023,0.009,0.015,0.012,0.036,0.025,0.041
,-0.11,-0.06!,10,2
-0.012,-0.023,0.009,0.013,0.012,0.035,0.024,0.041
,-0.08,-0.06!,10,2
-0.012,-0.023,0.009,0.013,0.012,0.036,0.025,0.041
,-0.06,-0.05!,10,2
-0.012,-0.023,0.009,0.013,0.011,0.034,0.025,0.041
,-0.10,-0.06!,10,2
-0.012,-0.023,0.010,0.014,0.010,0.034,0.026,0.041
,-0.19,-0.07!,10,2
-0.012,-0.023,0.010,0.013,0.009,0.035,0.025,0.041
,-0.16,-0.08!,10,2
-0.012,-0.023,0.010,0.014,0.008,0.035,0.025,0.041
,-0.07,-0.08!,10,2
-0.012,-0.023,0.009,0.013,0.009,0.034,0.023,0.041
,-0.03,-0.07!,10,2
-0.012,-0.023,0.010,0.013,0.009,0.035,0.024,0.042
,-0.03,-0.05!,10,2
-0.012,-0.023,0.010,0.013,0.009,0.037,0.025,0.044
,-0.03,-0.06!,10,2
-0.012,-0.023,0.010,0.013,0.010,0.038,0.025,0.042
,-0.03,-0.07!,10,2
-0.012,-0.023,0.010,0.013,0.009,0.038,0.027,0.043
,-0.02,-0.08!,10,2
-0.012,-0.023,0.011,0.013,0.010,0.038,0.026,0.043
,-0.02,-0.08!,10,2
-0.012,-0.023,0.011,0.013,0.011,0.038,0.026,0.042
,-0.02,-0.08!,10,2
-0.012,-0.023,0.010,0.013,0.011,0.038,0.025,0.042
,-0.01,-0.07!,10,2
-0.012,-0.023,0.010,0.013,0.011,0.038,0.025,0.043
,-0.02,-0.06!,10,2
-0.012,-0.023,0.009,0.013,0.011,0.037,0.026,0.043
,-0.02,-0.06!,10,2
-0.012,-0.023,0.010,0.013,0.010,0.038,0.026,0.043
,-0.03,-0.07!,10,2
-0.012,-0.023,0.009,0.014,0.010,0.039,0.025,0.041
,-0.03,-0.07!,10,2
-0.012,-0.023,0.010,0.015,0.010,0.037,0.026,0.040
,-0.03,-0.06!,10,2
-0.012,-0.023,0.009,0.015,0.009,0.037,0.026,0.041
,-0.03,-0.06!,10,2
-0.012,-0.023,0.009,0.015,0.011,0.037,0.025,0.040
,-0.04,-0.06!,10,2
-0.012,-0.023,0.009,0.015,0.010,0.037,0.024,0.041
,-0.06,-0.05!,10,2
-0.012,-0.023,0.009,0.014,0.008,0.037,0.025,0.042
,-0.06,-0.06!,10,2
-0.012,-0.023,0.008,0.015,0.009,0.037,0.025,0.043
,-0.07,-0.06!,10,2
-0.012,-0.023,0.008,0.014,0.009,0.037,0.025,0.041
,-0.07,-0.07!,10,2
-0.012,-0.023,0.008,0.016,0.008,0.037,0.026,0.041
,-0.08,-0.06!,10,2
-0.012,-0.023,0.008,0.016,0.009,0.037,0.026,0.042
,-0.09,-0.06!,10,2
-0.012,-0.023,0.009,0.016,0.009,0.036,0.026,0.043
,-0.09,-0.08!,10,2
-0.012,-0.023,0.009,0.015,0.009,0.036,0.027,0.042
,-0.09,-0.09!,10,2
-0.012,-0.023,0.009,0.015,0.011,0.036,0.026,0.041
,-0.08,-0.10!,10,2
-0.012,-0.023,0.009,0.015,0.011,0.035,0.026,0.042
,-0.07,-0.10!,10,2
-0.012,-0.023,0.008,0.015,0.011,0.035,0.027,0.041
,-0.07,-0.09!,10,2
-0.012,-0.023,0.009,0.015,0.011,0.036,0.026,0.040
,-0.07,-0.09!,10,2
-0.012,-0.023,0.009,0.015,0.010,0.036,0.027,0.040
,-0.06,-0.08!,10,2
-0.012,-0.023,0.009,0.016,0.011,0.036,0.027,0.042
,-0.06,-0.08!,10,2
-0.012,-0.023,0.010,0.015,0.012,0.035,0.025,0.041
,-0.06,-0.10!,10,2
-0.012,-0.023,0.011,0.015,0.012,0.034,0.025,0.040
,-0.06,-0.10!,10,2
-0.012,-0.023,0.009,0.014,0.012,0.034,0.026,0.040
,-0.03,-0.09!,10,2
-0.012,-0.023,0.009,0.014,0.013,0.035,0.023,0.041
,-0.03,-0.07!,10,2
-0.012,-0.023,0.009,0.014,0.012,0.035,0.023,0.041
,-0.05,-0.06!,10,2
-0.012,-0.023,0.009,0.014,0.011,0.035,0.023,0.042
,-0.06,-0.05!,10,2
-0.012,-0.023,0.009,0.013,0.011,0.035,0.024,0.041
,-0.06,-0.06!,10,2
-0.012,-0.023,0.010,0.014,0.011,0.034,0.024,0.042
,-0.04,-0.06!,10,2
-0.012,-0.023,0.009,0.013,0.010,0.033,0.022,0.041
,-0.02,-0.08!,10,2
-0.012,-0.023,0.009,0.012,0.011,0.033,0.023,0.041
,-0.02,-0.09!,10,2
-0.012,-0.023,0.010,0.011,0.009,0.034,0.023,0.042
,-0.02,-0.08!,10,2
-0.012,-0.023,0.009,0.011,0.010,0.035,0.023,0.043
,-0.01,-0.07!,10,2
-0.012,-0.023,0.009,0.010,0.009,0.035,0.022,0.042
,-0.01,-0.07!,10,2
-0.012,-0.023,0.009,0.010,0.008,0.035,0.022,0.041
,-0.04,-0.06!,10,2
-0.012,-0.023,0.008,0.011,0.008,0.036,0.023,0.041
,-0.11,-0.04!,10,2
-0.012,-0.023,0.009,0.012,0.008,0.036,0.023,0.039
,-0.10,-0.03!,10,2
-0.012,-0.023,0.009,0.012,0.008,0.037,0.023,0.040
,-0.04,-0.03!,10,2
-0.012,-0.023,0.009,0.012,0.010,0.038,0.025,0.040
,-0.01,-0.04!,10,2
-0.012,-0.023,0.009,0.012,0.011,0.038,0.024,0.039
,-0.01,-0.05!,10,2
-0.012,-0.023,0.010,0.012,0.011,0.038,0.024,0.041
,-0.02,-0.05!,10,2
-0.012,-0.023,0.009,0.012,0.011,0.038,0.024,0.039
,-0.02,-0.05!,10,2
-0.012,-0.023,0.010,0.011,0.011,0.037,0.024,0.039
,-0.01,-0.04!,10,2
-0.012,-0.023,0.010,0.013,0.011,0.036,0.025,0.040
,-0.02,-0.04!,10,2
-0.012,-0.023,0.010,0.012,0.011,0.036,0.024,0.039
,-0.03,-0.05!,10,2
-0.012,-0.023,0.010,0.013,0.011,0.035,0.024,0.041
,-0.03,-0.05!,10,2
-0.012,-0.023,0.010,0.012,0.011,0.035,0.025,0.042
,-0.03,-0.07!,10,2
-0.012,-0.023,0.011,0.012,0.011,0.034,0.025,0.042
,-0.03,-0.09!,10,2
-0.012,-0.023,0.011,0.012,0.011,0.033,0.023,0.042
,-0.01,-0.09!,10,2
-0.012,-0.023,0.011,0.012,0.010,0.034,0.024,0.043
,0.00,-0.07!,10,2
-0.012,-0.023,0.010,0.012,0.010,0.034,0.023,0.042
,0.00,-0.06!,10,2
-0.012,-0.023,0.011,0.013,0.010,0.034,0.023,0.043
,-0.02,-0.06!,10,2
-0.012,-0.023,0.010,0.013,0.009,0.034,0.023,0.042
,-0.03,-0.06!,10,2
-0.012,-0.023,0.011,0.012,0.011,0.035,0.023,0.042
,-0.03,-0.06!,10,2
-0.012,-0.023,0.010,0.012,0.011,0.034,0.023,0.043
,-0.03,-0.06!,10,2
-0.012,-0.023,0.010,0.010,0.011,0.034,0.024,0.042
,-0.01,-0.06!,10,2
-0.012,-0.023,0.011,0.011,0.010,0.033,0.024,0.041
,-0.03,-0.07!,10,2
-0.012,-0.023,0.012,0.011,0.012,0.033,0.023,0.040
,-0.05,-0.08!,10,2
-0.012,-0.023,0.011,0.012,0.011,0.034,0.023,0.041
,-0.02,-0.08!,10,2
-0.012,-0.023,0.011,0.012,0.011,0.034,0.022,0.041
,-0.01,-0.08!,10,2
-0.012,-0.023,0.012,0.011,0.011,0.034,0.022,0.041
,0.01,-0.07!,10,2
-0.012,-0.023,0.011,0.011,0.011,0.034,0.022,0.040
,0.03,-0.06!,10,2
-0.012,-0.023,0.011,0.011,0.012,0.034,0.022,0.042
,0.03,-0.06!,10,2
-0.012,-0.023,0.011,0.011,0.010,0.034,0.022,0.042
,0.02,-0.06!,10,2
-0.012,-0.023,0.011,0.011,0.011,0.035,0.022,0.041
,0.02,-0.06!,10,2
-0.012,-0.023,0.011,0.011,0.011,0.034,0.020,0.041
,0.02,-0.06!,10,2
-0.012,-0.023,0.010,0.011,0.010,0.036,0.021,0.042
,0.01,-0.06!,10,2
-0.012,-0.023,0.008,0.011,0.008,0.036,0.022,0.041
,-0.00,-0.05!,10,2
-0.012,-0.023,0.008,0.010,0.009,0.035,0.022,0.042
,-0.00,-0.04!,10,2
-0.012,-0.023,0.009,0.010,0.009,0.035,0.023,0.043
,-0.01,-0.04!,10,2
-0.012,-0.023,0.007,0.010,0.009,0.035,0.023,0.043
,-0.02,-0.05!,10,2
-0.012,-0.023,0.008,0.011,0.010,0.036,0.023,0.043
,-0.04,-0.06!,10,2
-0.012,-0.023,0.008,0.010,0.009,0.036,0.023,0.044
,-0.04,-0.05!,10,2
-0.012,-0.023,0.008,0.011,0.009,0.035,0.024,0.043
,-0.03,-0.06!,10,2
-0.012,-0.023,0.008,0.011,0.009,0.035,0.025,0.044
,-0.02,-0.08!,10,2
-0.012,-0.023,0.008,0.011,0.009,0.036,0.025,0.044
,-0.03,-0.09!,10,2
-0.012,-0.023,0.009,0.012,0.009,0.036,0.028,0.044
,-0.03,-0.10!,10,2
-0.012,-0.023,0.010,0.011,0.009,0.036,0.028,0.045
,-0.03,-0.12!,10,2
-0.012,-0.023,0.011,0.012,0.009,0.036,0.028,0.043
,-0.01,-0.12!,10,2
-0.012,-0.023,0.010,0.012,0.009,0.036,0.027,0.042
,0.01,-0.11!,10,2
-0.012,-0.023,0.010,0.012,0.009,0.035,0.026,0.042
,0.01,-0.10!,10,2
-0.012,-0.023,0.010,0.012,0.008,0.036,0.027,0.041
,0.00,-0.08!,10,2
-0.012,-0.023,0.010,0.014,0.008,0.036,0.027,0.040
,-0.01,-0.08!,10,2
-0.012,-0.023,0.010,0.014,0.008,0.036,0.028,0.040
,-0.03,-0.08!,10,2
-0.012,-0.023,0.010,0.014,0.009,0.037,0.026,0.040
,-0.03,-0.08!,10,2
-0.012,-0.023,0.010,0.014,0.010,0.036,0.025,0.040
,-0.03,-0.07!,10,2
-0.012,-0.023,0.009,0.015,0.011,0.037,0.023,0.039
,-0.05,-0.06!,10,2
-0.012,-0.023,0.009,0.015,0.011,0.036,0.023,0.039
,-0.07,-0.04!,10,2
-0.012,-0.023,0.008,0.015,0.012,0.037,0.023,0.040
,-0.09,-0.04!,10,2
-0.012,-0.023,0.008,0.015,0.012,0.037,0.023,0.040
,-0.09,-0.04!,10,2
-0.012,-0.023,0.007,0.016,0.012,0.037,0.025,0.041
,-0.11,-0.05!,10,2
-0.012,-0.023,0.008,0.016,0.012,0.036,0.024,0.041
,-0.13,-0.07!,10,2
-0.012,-0.023,0.008,0.015,0.013,0.036,0.025,0.041
,-0.12,-0.08!,10,2
-0.012,-0.023,0.009,0.015,0.014,0.036,0.024,0.042
,-0.10,-0.08!,10,2
-0.012,-0.023,0.009,0.015,0.015,0.035,0.024,0.042
,-0.09,-0.07!,10,2
-0.012,-0.023,0.009,0.015,0.015,0.036,0.024,0.041
,-0.09,-0.06!,10,2
-0.012,-0.023,0.008,0.015,0.015,0.035,0.023,0.041
,-0.09,-0.05!,10,2
-0.012,-0.023,0.008,0.016,0.015,0.035,0.023,0.043
,-0.11,-0.04!,10,2
-0.012,-0.023,0.009,0.016,0.015,0.034,0.024,0.042
,-0.11,-0.06!,10,2
-0.012,-0.023,0.009,0.016,0.015,0.033,0.024,0.041
,-0.10,-0.08!,10,2
-0.012,-0.023,0.010,0.015,0.016,0.033,0.022,0.040
,-0.08,-0.08!,10,2
-0.012,-0.023,0.009,0.015,0.015,0.033,0.022,0.042
,-0.06,-0.06!,10,2
-0.012,-0.023,0.009,0.014,0.015,0.033,0.021,0.042
,-0.06,-0.05!,10,2
-0.012,-0.023,0.010,0.015,0.015,0.033,0.022,0.043
,-0.07,-0.05!,10,2
-0.012,-0.023,0.010,0.014,0.014,0.034,0.021,0.042
,-0.06,-0.05!,10,2
-0.012,-0.023,0.010,0.014,0.013,0.034,0.022,0.042
,-0.05,-0.05!,10,2
-0.012,-0.023,0.010,0.014,0.012,0.033,0.022,0.043
,-0.05,-0.05!,10,2
-0.012,-0.023,0.012,0.014,0.013,0.033,0.024,0.040
,-0.05,-0.06!,10,2
-0.012,-0.023,0.011,0.014,0.013,0.034,0.024,0.040
,-0.05,-0.07!,10,2
-0.012,-0.023,0.012,0.013,0.013,0.034,0.024,0.041
,-0.04,-0.08!,10,2
-0.012,-0.023,0.011,0.013,0.013,0.034,0.024,0.041
,-0.03,-0.08!,10,2
-0.012,-0.023,0.011,0.013,0.013,0.034,0.024,0.041
,-0.03,-0.08!,10,2
-0.012,-0.023,0.011,0.013,0.014,0.034,0.026,0.040
,-0.02,-0.09!,10,2
-0.012,-0.023,0.009,0.013,0.013,0.034,0.026,0.039
,-0.02,-0.10!,10,2
-0.012,-0.023,0.010,0.013,0.013,0.033,0.026,0.038
,-0.02,-0.10!,10,2
-0.012,-0.023,0.010,0.013,0.013,0.033,0.027,0.039
,-0.03,-0.10!,10,2
-0.012,-0.023,0.010,0.013,0.013,0.033,0.027,0.040
,-0.03,-0.11!,10,2
-0.012,-0.023,0.009,0.013,0.013,0.033,0.025,0.040
,-0.04,-0.12!,10,2
-0.012,-0.023,0.009,0.013,0.013,0.033,0.025,0.040
,-0.04,-0.11!,10,2
-0.012,-0.023,0.008,0.013,0.013,0.034,0.025,0.041
,-0.05,-0.10!,10,2
-0.012,-0.023,0.008,0.014,0.014,0.034,0.024,0.041
,-0.07,-0.08!,10,2
-0.012,-0.023,0.008,0.014,0.013,0.034,0.026,0.041
,-0.08,-0.07!,10,2
-0.012,-0.023,0.008,0.015,0.014,0.035,0.025,0.041
,-0.09,-0.07!,10,2
-0.012,-0.023,0.010,0.015,0.014,0.035,0.024,0.042
,-0.10,-0.08!,10,2
-0.012,-0.023,0.010,0.015,0.014,0.035,0.025,0.042
,-0.09,-0.08!,10,2
-0.012,-0.023,0.010,0.015,0.014,0.035,0.025,0.045
,-0.07,-0.09!,10,2
-0.012,-0.023,0.010,0.015,0.014,0.035,0.025,0.044
,-0.06,-0.09!,10,2
-0.012,-0.023,0.010,0.015,0.013,0.035,0.025,0.045
,-0.06,-0.09!,10,2
-0.012,-0.023,0.010,0.015,0.013,0.035,0.025,0.045
,-0.06,-0.09!,10,2
-0.012,-0.023,0.010,0.016,0.013,0.035,0.026,0.044
,-0.06,-0.09!,10,2
-0.012,-0.023,0.011,0.016,0.012,0.035,0.026,0.045
,-0.06,-0.10!,10,2
-0.012,-0.023,0.011,0.017,0.012,0.035,0.025,0.044
,-0.05,-0.10!,10,2
-0.012,-0.023,0.011,0.017,0.012,0.035,0.023,0.044
,-0.05,-0.09!,10,2
-0.012,-0.023,0.010,0.017,0.012,0.036,0.023,0.045
,-0.06,-0.06!,10,2
-0.012,-0.023,0.010,0.019,0.012,0.036,0.022,0.046
,-0.08,-0.04!,10,2
-0.012,-0.023,0.008,0.019,0.011,0.038,0.022,0.044
,-0.10,-0.03!,10,2
-0.012,-0.023,0.008,0.020,0.011,0.037,0.022,0.044
,-0.12,-0.02!,10,2
-0.012,-0.023,0.008,0.020,0.011,0.037,0.022,0.044
,-0.14,-0.02!,10,2
-0.012,-0.023,0.009,0.021,0.011,0.037,0.024,0.043
,-0.15,-0.04!,10,2
-0.012,-0.023,0.008,0.021,0.011,0.036,0.022,0.044
,-0.14,-0.06!,10,2
-0.012,-0.023,0.008,0.021,0.011,0.036,0.022,0.045
,-0.15,-0.07!,10,2
