-0.012,0.625,0.004,0.007,0.005,0.009,0.587,0.016,-0.16,0.21!,44868,2
-0.012,0.625,0.006,0.009,0.007,0.014,0.834,0.022
,-0.00,-0.03!,10,2
-0.012,0.625,0.007,0.013,0.008,0.020,1.025,0.027
,-0.06,-0.03!,10,2
-0.012,0.625,0.008,0.018,0.009,0.025,1.180,0.029
,-0.16,-0.00!,10,2
-0.012,0.625,0.010,0.021,0.009,0.027,1.323,0.032
,-0.26,0.05!,10,2
-0.012,0.625,0.011,0.023,0.011,0.030,1.449,0.036
,-0.24,0.11!,10,2
-0.012,0.625,0.011,0.025,0.012,0.032,1.564,0.040
,-0.14,0.16!,10,2
-0.012,0.625,0.011,0.027,0.012,0.034,1.675,0.042
,-0.11,0.19!,10,2
-0.012,0.625,0.014,0.028,0.013,0.036,1.776,0.044
,-0.13,0.22!,10,2
-0.012,0.625,0.014,0.030,0.013,0.038,1.871,0.045
,-0.14,0.24!,10,2
-0.012,0.625,0.014,0.031,0.013,0.039,1.874,0.044
,-0.13,0.27!,10,2
-0.012,0.625,0.014,0.032,0.012,0.040,1.872,0.046
,-0.14,0.30!,10,2
-0.012,0.625,0.014,0.032,0.011,0.039,1.872,0.046
,-0.16,0.32!,10,2
-0.012,0.625,0.013,0.031,0.011,0.040,1.875,0.046
,-0.17,0.33!,10,2
-0.012,0.625,0.014,0.031,0.012,0.040,1.872,0.047
,-0.17,0.33!,10,2
-0.012,0.625,0.014,0.031,0.011,0.039,1.874,0.046
,-0.15,0.33!,10,2
-0.012,0.625,0.014,0.032,0.013,0.039,1.875,0.045
,-0.15,0.32!,10,2
-0.012,0.625,0.014,0.032,0.013,0.039,1.873,0.044
,-0.15,0.31!,10,2
-0.012,0.625,0.012,0.032,0.012,0.040,1.875,0.045
,-0.16,0.31!,10,2
-0.012,0.625,0.012,0.031,0.012,0.040,1.875,0.046
,-0.18,0.31!,10,2
-0.012,0.625,0.012,0.031,0.013,0.039,1.874,0.047
,-0.20,0.31!,10,2
-0.012,0.625,0.012,0.031,0.013,0.038,1.877,0.045
,-0.20,0.32!,10,2
-0.012,0.625,0.013,0.031,0.013,0.038,1.875,0.045
,-0.19,0.31!,10,2
-0.012,0.625,0.014,0.031,0.013,0.037,1.875,0.045
,-0.18,0.30!,10,2
-0.012,0.625,0.012,0.031,0.012,0.037,1.878,0.045
,-0.18,0.29!,10,2
-0.012,0.625,0.012,0.031,0.013,0.038,1.875,0.045
,-0.18,0.28!,10,2
-0.012,0.625,0.013,0.030,0.011,0.038,1.877,0.046
,-0.20,0.28!,10,2
-0.012,0.625,0.013,0.031,0.011,0.037,1.878,0.046
,-0.20,0.30!,10,2
-0.012,0.625,0.013,0.031,0.011,0.038,1.874,0.047
,-0.18,0.29!,10,2
-0.012,0.625,0.013,0.032,0.012,0.039,1.877,0.046
,-0.17,0.28!,10,2
-0.012,0.625,0.013,0.033,0.010,0.039,1.876,0.047
,-0.18,0.29!,10,2
-0.012,0.625,0.012,0.033,0.011,0.039,1.874,0.047
,-0.19,0.31!,10,2
-0.012,0.625,0.012,0.032,0.011,0.040,1.877,0.046
,-0.19,0.31!,10,2
-0.012,0.625,0.012,0.032,0.012,0.039,1.874,0.047
,-0.20,0.31!,10,2
-0.012,0.625,0.012,0.032,0.011,0.039,1.873,0.048
,-0.20,0.31!,10,2
-0.012,0.625,0.011,0.033,0.013,0.039,1.876,0.048
,-0.20,0.31!,10,2
-0.012,0.625,0.011,0.033,0.013,0.039,1.872,0.046
,-0.21,0.31!,10,2
-0.012,0.625,0.011,0.032,0.013,0.039,1.874,0.046
,-0.22,0.31!,10,2
-0.012,0.625,0.012,0.032,0.013,0.040,1.875,0.046
,-0.23,0.31!,10,2
-0.012,0.625,0.012,0.031,0.012,0.039,1.872,0.045
,-0.22,0.31!,10,2
-0.012,0.625,0.013,0.031,0.013,0.039,1.875,0.044
,-0.19,0.31!,10,2
-0.012,0.625,0.013,0.031,0.012,0.039,1.875,0.045
,-0.18,0.31!,10,2
-0.012,0.625,0.013,0.032,0.012,0.038,1.874,0.044
,-0.16,0.31!,10,2
-0.012,0.625,0.013,0.031,0.012,0.039,1.876,0.044
,-0.17,0.31!,10,2
-0.012,0.625,0.014,0.030,0.013,0.039,1.874,0.044
,-0.17,0.31!,10,2
-0.012,0.625,0.014,0.030,0.010,0.038,1.874,0.044
,-0.16,0.31!,10,2
-0.012,0.625,0.015,0.030,0.011,0.038,1.876,0.044
,-0.15,0.31!,10,2
-0.012,0.625,0.015,0.031,0.011,0.038,1.873,0.045
,-0.13,0.30!,10,2
-0.012,0.625,0.014,0.031,0.011,0.036,1.875,0.046
,-0.12,0.29!,10,2
-0.012,0.625,0.014,0.030,0.011,0.036,1.876,0.046
,-0.14,0.29!,10,2
-0.012,0.625,0.014,0.030,0.012,0.036,1.874,0.046
,-0.15,0.29!,10,2
-0.012,0.625,0.013,0.030,0.012,0.036,1.877,0.047
,-0.15,0.27!,10,2
-0.012,0.625,0.013,0.031,0.012,0.038,1.876,0.048
,-0.14,0.27!,10,2
-0.012,0.625,0.014,0.031,0.012,0.037,1.874,0.048
,-0.15,0.27!,10,2
-0.012,0.625,0.013,0.032,0.012,0.036,1.877,0.046
,-0.16,0.27!,10,2
-0.012,0.625,0.014,0.032,0.013,0.036,1.875,0.048
,-0.17,0.27!,10,2
-0.012,0.625,0.013,0.032,0.013,0.036,1.875,0.048
,-0.18,0.27!,10,2
-0.012,0.625,0.013,0.031,0.013,0.038,1.877,0.048
,-0.19,0.27!,10,2
-0.012,0.625,0.012,0.031,0.013,0.038,1.874,0.047
,-0.19,0.28!,10,2
-0.012,0.625,0.012,0.030,0.015,0.037,1.876,0.048
,-0.19,0.30!,10,2
-0.012,0.625,0.012,0.030,0.015,0.038,1.876,0.049
,-0.19,0.30!,10,2
-0.012,0.625,0.012,0.030,0.016,0.038,1.873,0.046
,-0.19,0.28!,10,2
-0.012,0.625,0.012,0.029,0.017,0.037,1.876,0.046
,-0.19,0.28!,10,2
-0.012,0.625,0.010,0.030,0.018,0.037,1.875,0.046
,-0.20,0.29!,10,2
-0.012,0.625,0.010,0.029,0.018,0.038,1.873,0.048
,-0.20,0.29!,10,2
-0.012,0.625,0.008,0.028,0.019,0.038,1.876,0.047
,-0.22,0.29!,10,2
-0.012,0.625,0.009,0.027,0.019,0.038,1.874,0.046
,-0.23,0.29!,10,2
-0.012,0.625,0.009,0.028,0.020,0.037,1.874,0.046
,-0.23,0.29!,10,2
-0.012,0.625,0.009,0.028,0.021,0.039,1.876,0.045
,-0.23,0.29!,10,2
-0.012,0.625,0.010,0.029,0.021,0.039,1.873,0.044
,-0.24,0.28!,10,2
-0.012,0.625,0.010,0.028,0.022,0.038,1.874,0.044
,-0.25,0.29!,10,2
-0.012,0.625,0.010,0.029,0.022,0.039,1.875,0.045
,-0.25,0.30!,10,2
-0.012,0.625,0.010,0.029,0.022,0.039,1.872,0.044
,-0.25,0.31!,10,2
-0.012,0.625,0.010,0.029,0.022,0.039,1.875,0.044
,-0.24,0.32!,10,2
-0.012,0.625,0.010,0.029,0.022,0.039,1.868,0.043
,-0.24,0.31!,10,2
-0.012,0.625,0.011,0.030,0.023,0.038,1.867,0.043
,-0.24,0.31!,10,2
-0.012,0.625,0.011,0.030,0.024,0.038,1.869,0.046
,-0.25,0.30!,10,2
-0.012,0.625,0.011,0.029,0.024,0.039,1.861,0.046
,-0.25,0.29!,10,2
-0.012,0.625,0.012,0.029,0.024,0.037,1.861,0.045
,-0.24,0.30!,10,2
-0.012,0.625,0.012,0.028,0.023,0.038,1.860,0.047
,-0.23,0.31!,10,2
-0.011,0.625,0.012,0.029,0.024,0.040,1.857,0.047
,-0.21,0.31!,10,2
-0.011,0.625,0.012,0.028,0.024,0.039,1.859,0.046
,-0.20,0.33!,10,2
-0.011,0.625,0.013,0.028,0.024,0.040,1.859,0.047
,-0.20,0.32!,10,2
-0.011,0.625,0.012,0.027,0.024,0.039,1.856,0.047
,-0.20,0.32!,10,2
-0.011,0.625,0.013,0.027,0.024,0.039,1.864,0.046
,-0.18,0.33!,10,2
-0.011,0.625,0.012,0.027,0.023,0.040,1.863,0.047
,-0.17,0.33!,10,2
-0.011,0.625,0.012,0.028,0.022,0.041,1.863,0.045
,-0.17,0.33!,10,2
-0.011,0.625,0.012,0.028,0.022,0.040,1.872,0.045
,-0.18,0.35!,10,2
-0.012,0.625,0.011,0.028,0.022,0.040,1.870,0.046
,-0.19,0.35!,10,2
-0.012,0.625,0.011,0.028,0.022,0.038,1.874,0.045
,-0.21,0.35!,10,2
-0.012,0.625,0.010,0.028,0.021,0.037,1.876,0.045
,-0.02,0.33!,10,2
-0.012,0.625,0.010,0.027,0.021,0.038,1.872,0.045
,0.09,0.31!,10,2
-0.012,0.625,0.009,0.028,0.021,0.038,1.874,0.044
,-0.10,0.31!,10,2
-0.012,0.625,0.011,0.028,0.021,0.038,1.874,0.044
,-0.23,0.32!,10,2
-0.012,0.625,0.010,0.028,0.021,0.037,1.872,0.045
,-0.25,0.32!,10,2
-0.012,0.625,0.011,0.028,0.022,0.037,1.875,0.046
,-0.23,0.32!,10,2
-0.012,0.625,0.011,0.027,0.022,0.036,1.873,0.046
,-0.21,0.31!,10,2
-0.012,0.625,0.011,0.029,0.022,0.037,1.873,0.046
,-0.20,0.30!,10,2
-0.012,0.625,0.011,0.028,0.022,0.036,1.875,0.046
,-0.20,0.30!,10,2
-0.012,0.625,0.011,0.029,0.023,0.037,1.873,0.047
,-0.20,0.31!,10,2
-0.012,0.625,0.012,0.029,0.023,0.037,1.873,0.047
,-0.21,0.31!,10,2
-0.012,0.625,0.012,0.029,0.023,0.037,1.875,0.047
,-0.22,0.31!,10,2
-0.012,0.625,0.012,0.029,0.023,0.037,1.872,0.047
,-0.22,0.31!,10,2
-0.012,0.625,0.011,0.028,0.023,0.037,1.875,0.048
,-0.22,0.30!,10,2
-0.012,0.625,0.010,0.029,0.023,0.039,1.875,0.047
,-0.22,0.30!,10,2
-0.012,0.625,0.010,0.028,0.022,0.039,1.873,0.046
,-0.23,0.30!,10,2
-0.012,0.625,0.010,0.027,0.023,0.040,1.877,0.047
,-0.24,0.31!,10,2
-0.012,0.625,0.010,0.025,0.023,0.041,1.874,0.046
,-0.24,0.33!,10,2
-0.012,0.625,0.011,0.024,0.023,0.041,1.871,0.046
,-0.23,0.34!,10,2
-0.013,0.625,0.010,0.023,0.021,0.042,1.872,0.045
,-0.21,0.36!,10,2
-0.013,0.625,0.010,0.022,0.021,0.041,1.869,0.044
,-0.20,0.37!,10,2
-0.012,0.625,0.010,0.021,0.020,0.041,1.868,0.045
,-0.02,0.38!,10,2
-0.012,0.625,0.010,0.019,0.021,0.041,1.868,0.045
,0.10,0.38!,10,2
-0.012,0.625,0.010,0.019,0.021,0.041,1.845,0.045
,-0.20,0.37!,10,2
-0.012,0.625,0.011,0.017,0.020,0.040,1.748,0.045
,-0.38,0.36!,10,2
-0.013,0.625,0.011,0.017,0.020,0.040,1.644,0.045
,-0.24,0.36!,10,2
-0.012,0.625,0.011,0.017,0.020,0.038,1.531,0.044
,-0.11,0.36!,10,2
-0.012,0.625,0.010,0.016,0.020,0.038,1.415,0.044
,0.09,0.35!,10,2
-0.012,0.625,0.010,0.016,0.020,0.038,1.317,0.043
,0.17,0.34!,10,2
-0.013,0.625,0.011,0.017,0.021,0.037,1.206,0.045
,0.02,0.32!,10,2
-0.013,0.625,0.011,0.016,0.021,0.037,1.055,0.046
,-0.10,0.31!,10,2
-0.013,0.625,0.011,0.017,0.021,0.037,0.875,0.046
,-0.13,0.30!,10,2
-0.013,0.625,0.011,0.018,0.021,0.038,0.647,0.046
,-0.12,0.30!,10,2
-0.013,0.625,0.012,0.017,0.020,0.038,0.386,0.046
,-0.10,0.30!,10,2
-0.013,0.625,0.011,0.016,0.021,0.037,0.386,0.046
,-0.09,0.31!,10,2
-0.013,0.625,0.011,0.016,0.021,0.037,0.386,0.046
,-0.09,0.31!,10,2
-0.013,0.625,0.012,0.017,0.021,0.038,0.386,0.046
,-0.09,0.31!,10,2
-0.013,0.625,0.012,0.017,0.021,0.038,0.386,0.046
,-0.08,0.31!,10,2
-0.013,0.625,0.011,0.016,0.020,0.039,0.272,0.047
,-0.07,0.31!,10,2
-0.013,0.625,0.010,0.016,0.021,0.040,0.034,0.046
,-0.08,0.31!,10,2
-0.013,0.625,0.010,0.016,0.021,0.040,0.034,0.044
,-0.09,0.33!,10,2
-0.013,0.625,0.010,0.015,0.021,0.040,0.034,0.045
,-0.10,0.35!,10,2
-0.013,0.625,0.010,0.016,0.021,0.039,0.035,0.045
,-0.10,0.35!,10,2
-0.013,0.625,0.009,0.016,0.021,0.039,0.034,0.044
,-0.09,0.35!,10,2
-0.013,0.625,0.010,0.017,0.020,0.039,0.033,0.045
,-0.09,0.34!,10,2
-0.013,0.625,0.009,0.017,0.020,0.039,0.033,0.045
,-0.09,0.33!,10,2
-0.013,0.625,0.009,0.016,0.020,0.039,0.033,0.044
,-0.10,0.33!,10,2
-0.013,0.625,0.009,0.017,0.020,0.039,0.434,0.045
,-0.11,0.33!,10,2
-0.013,0.625,0.009,0.017,0.020,0.038,0.751,0.044
,-0.12,0.33!,10,2
-0.013,0.625,0.011,0.018,0.019,0.037,0.970,0.044
,-0.13,0.33!,10,2
-0.013,0.625,0.011,0.018,0.019,0.037,1.146,0.044
,-0.13,0.32!,10,2
-0.013,0.625,0.011,0.018,0.019,0.038,1.257,0.044
,-0.12,0.30!,10,2
-0.013,0.625,0.011,0.017,0.019,0.037,1.257,0.044
,-0.10,0.30!,10,2
-0.013,0.625,0.011,0.016,0.020,0.037,1.257,0.045
,-0.10,0.31!,10,2
-0.013,0.625,0.011,0.016,0.020,0.040,1.257,0.045
,-0.09,0.32!,10,2
-0.013,0.625,0.011,0.016,0.020,0.039,1.257,0.045
,-0.08,0.31!,10,2
-0.013,0.625,0.011,0.016,0.020,0.039,1.257,0.046
,-0.08,0.31!,10,2
-0.013,0.625,0.011,0.015,0.020,0.038,1.180,0.044
,-0.08,0.32!,10,2
-0.013,0.625,0.012,0.015,0.020,0.038,1.008,0.045
,-0.07,0.32!,10,2
-0.013,0.625,0.011,0.015,0.020,0.038,0.799,0.045
,-0.06,0.31!,10,2
-0.013,0.625,0.011,0.015,0.021,0.038,0.516,0.044
,-0.05,0.31!,10,2
-0.013,0.625,0.011,0.015,0.020,0.038,0.029,0.045
,-0.05,0.31!,10,2
-0.013,0.625,0.011,0.015,0.020,0.038,0.030,0.045
,-0.06,0.32!,10,2
-0.013,0.625,0.011,0.015,0.019,0.038,0.030,0.043
,-0.07,0.32!,10,2
-0.013,0.625,0.011,0.015,0.020,0.037,0.029,0.044
,-0.07,0.32!,10,2
-0.013,0.625,0.011,0.015,0.021,0.038,0.032,0.045
,-0.06,0.32!,10,2
-0.013,0.625,0.010,0.015,0.022,0.039,0.032,0.046
,-0.07,0.32!,10,2
-0.013,0.625,0.010,0.016,0.022,0.039,0.031,0.045
,-0.08,0.32!,10,2
-0.013,0.625,0.011,0.015,0.022,0.038,0.031,0.045
,-0.10,0.33!,10,2
-0.013,0.625,0.011,0.015,0.021,0.038,0.031,0.047
,-0.10,0.33!,10,2
-0.013,0.625,0.010,0.014,0.021,0.038,0.032,0.047
,-0.09,0.33!,10,2
-0.013,0.625,0.010,0.014,0.021,0.038,0.031,0.046
,-0.08,0.32!,10,2
-0.013,0.625,0.009,0.015,0.021,0.039,0.029,0.046
,-0.08,0.32!,10,2
-0.013,0.625,0.011,0.015,0.021,0.039,0.029,0.045
,-0.09,0.32!,10,2
-0.013,0.625,0.011,0.013,0.020,0.038,0.029,0.045
,-0.10,0.32!,10,2
-0.013,0.625,0.011,0.013,0.019,0.038,0.026,0.044
,-0.10,0.33!,10,2
-0.013,0.625,0.011,0.013,0.017,0.037,0.029,0.044
,-0.07,0.33!,10,2
-0.013,0.625,0.011,0.013,0.017,0.037,0.031,0.045
,-0.05,0.32!,10,2
-0.013,0.625,0.009,0.013,0.017,0.038,0.034,0.044
,-0.04,0.31!,10,2
-0.013,0.625,0.008,0.013,0.017,0.041,0.037,0.044
,-0.05,0.30!,10,2
-0.013,0.625,0.009,0.013,0.015,0.040,0.038,0.044
,-0.07,0.33!,10,2
-0.013,0.625,0.009,0.013,0.014,0.040,0.039,0.044
,-0.07,0.36!,10,2
-0.013,0.625,0.009,0.011,0.013,0.040,0.040,0.044
,-0.06,0.37!,10,2
-0.013,0.625,0.009,0.011,0.013,0.041,0.040,0.045
,-0.05,0.36!,10,2
-0.013,0.625,0.009,0.011,0.012,0.040,0.040,0.044
,-0.04,0.35!,10,2
-0.013,0.625,0.008,0.011,0.012,0.041,0.041,0.045
,-0.03,0.36!,10,2
-0.013,0.625,0.009,0.011,0.013,0.042,0.040,0.045
,-0.03,0.37!,10,2
-0.014,0.625,0.008,0.010,0.012,0.042,0.038,0.045
,-0.02,0.37!,10,2
-0.015,0.625,0.010,0.010,0.012,0.040,0.036,0.045
,-0.01,0.37!,10,2
-0.017,0.625,0.010,0.010,0.011,0.038,0.037,0.043
,0.00,0.38!,10,2
-0.018,0.625,0.010,0.011,0.012,0.038,0.037,0.043
,0.12,0.35!,10,2
-0.018,0.625,0.009,0.011,0.012,0.038,0.041,0.044
,0.29,0.32!,10,2
-0.019,0.625,0.009,0.012,0.012,0.038,0.044,0.043
,0.35,0.31!,10,2
-0.020,0.625,0.009,0.011,0.012,0.037,0.049,0.043
,0.21,0.31!,10,2
-0.021,0.625,0.009,0.011,0.012,0.037,0.051,0.043
,0.01,0.31!,10,2
-0.023,0.625,0.010,0.011,0.012,0.036,0.053,0.043
,0.04,0.30!,10,2
-0.025,0.625,0.010,0.011,0.012,0.036,0.054,0.042
,0.23,0.29!,10,2
-0.028,0.625,0.010,0.011,0.012,0.037,0.059,0.043
,0.34,0.28!,10,2
-0.031,0.625,0.009,0.011,0.012,0.037,0.059,0.044
,0.36,0.29!,10,2
-0.033,0.625,0.009,0.010,0.011,0.036,0.057,0.044
,0.34,0.30!,10,2
-0.035,0.625,0.009,0.010,0.010,0.037,0.056,0.043
,0.31,0.30!,10,2
-0.036,0.625,0.009,0.010,0.011,0.038,0.052,0.044
,0.30,0.29!,10,2
-0.036,0.625,0.009,0.011,0.011,0.039,0.050,0.045
,0.30,0.29!,10,2
-0.036,0.625,0.009,0.011,0.010,0.040,0.046,0.045
,0.30,0.31!,10,2
-0.036,0.625,0.008,0.011,0.011,0.040,0.044,0.046
,0.20,0.33!,10,2
-0.036,0.625,0.008,0.011,0.012,0.040,0.042,0.046
,0.03,0.35!,10,2
-0.036,0.625,0.008,0.011,0.011,0.039,0.040,0.046
,-0.05,0.35!,10,2
-0.036,0.625,0.007,0.010,0.012,0.038,0.033,0.046
,-0.06,0.35!,10,2
-0.036,0.625,0.007,0.011,0.012,0.040,0.032,0.047
,-0.04,0.34!,10,2
-0.036,0.625,0.008,0.011,0.012,0.041,0.034,0.047
,-0.03,0.32!,10,2
-0.036,0.625,0.008,0.011,0.012,0.041,0.035,0.048
,-0.03,0.33!,10,2
-0.036,0.625,0.008,0.011,0.012,0.040,0.035,0.046
,-0.04,0.35!,10,2
-0.036,0.625,0.008,0.010,0.012,0.039,0.033,0.047
,-0.04,0.36!,10,2
-0.036,0.625,0.009,0.011,0.012,0.040,0.033,0.045
,-0.03,0.35!,10,2
-0.035,0.625,0.009,0.010,0.012,0.039,0.033,0.044
,-0.03,0.35!,10,2
-0.036,0.625,0.009,0.011,0.013,0.040,0.033,0.043
,-0.03,0.35!,10,2
-0.036,0.625,0.009,0.011,0.013,0.039,0.033,0.044
,-0.02,0.35!,10,2
-0.036,0.625,0.009,0.013,0.013,0.040,0.034,0.044
,-0.02,0.35!,10,2
-0.036,0.625,0.009,0.020,0.013,0.040,0.033,0.043
,-0.03,0.35!,10,2
-0.036,0.625,0.009,0.023,0.013,0.038,0.031,0.044
,-0.05,0.35!,10,2
-0.036,0.625,0.009,0.027,0.013,0.039,0.031,0.044
,-0.09,0.34!,10,2
-0.036,0.625,0.009,0.032,0.014,0.038,0.031,0.044
,-0.14,0.31!,10,2
-0.036,0.625,0.009,0.035,0.014,0.039,0.031,0.043
,-0.20,0.31!,10,2
-0.036,0.625,0.009,0.038,0.016,0.037,0.032,0.045
,-0.26,0.31!,10,2
-0.036,0.625,0.009,0.040,0.016,0.037,0.033,0.047
,-0.30,0.30!,10,2
-0.036,0.625,0.009,0.042,0.018,0.035,0.034,0.047
,-0.33,0.29!,10,2
-0.036,0.625,0.009,0.045,0.019,0.037,0.033,0.046
,-0.36,0.28!,10,2
-0.036,0.625,0.009,0.047,0.020,0.037,0.033,0.046
,-0.38,0.26!,10,2
-0.036,0.625,0.010,0.047,0.020,0.036,0.032,0.046
,-0.40,0.27!,10,2
-0.036,0.625,0.010,0.048,0.022,0.036,0.032,0.045
,-0.43,0.29!,10,2
-0.036,0.625,0.010,0.048,0.023,0.035,0.032,0.044
,-0.43,0.30!,10,2
-0.036,0.625,0.010,0.047,0.024,0.034,0.031,0.044
,-0.44,0.29!,10,2
-0.036,0.625,0.011,0.047,0.024,0.034,0.032,0.045
,-0.44,0.28!,10,2
-0.036,0.625,0.010,0.047,0.023,0.035,0.030,0.044
,-0.43,0.26!,10,2
-0.036,0.625,0.009,0.047,0.024,0.034,0.031,0.043
,-0.41,0.26!,10,2
-0.036,0.625,0.010,0.047,0.023,0.035,0.033,0.043
,-0.42,0.27!,10,2
-0.036,0.625,0.010,0.047,0.023,0.034,0.035,0.043
,-0.44,0.28!,10,2
-0.036,0.625,0.010,0.046,0.023,0.034,0.034,0.042
,-0.44,0.28!,10,2
-0.036,0.625,0.010,0.045,0.023,0.034,0.034,0.042
,-0.43,0.27!,10,2
-0.036,0.625,0.011,0.046,0.023,0.033,0.037,0.041
,-0.42,0.26!,10,2
-0.036,0.625,0.011,0.046,0.022,0.034,0.040,0.042
,-0.42,0.25!,10,2
-0.036,0.625,0.011,0.046,0.023,0.035,0.042,0.043
,-0.41,0.24!,10,2
-0.036,0.625,0.010,0.046,0.023,0.034,0.041,0.042
,-0.41,0.25!,10,2
-0.036,0.625,0.010,0.045,0.023,0.034,0.041,0.042
,-0.41,0.27!,10,2
-0.036,0.625,0.010,0.045,0.023,0.035,0.040,0.043
,-0.42,0.27!,10,2
-0.036,0.625,0.010,0.045,0.023,0.034,0.037,0.042
,-0.41,0.26!,10,2
-0.036,0.625,0.010,0.045,0.022,0.035,0.036,0.043
,-0.41,0.25!,10,2
-0.036,0.625,0.011,0.046,0.022,0.035,0.037,0.044
,-0.41,0.25!,10,2
-0.036,0.625,0.009,0.046,0.022,0.035,0.037,0.043
,-0.41,0.26!,10,2
-0.036,0.625,0.008,0.046,0.022,0.035,0.034,0.045
,-0.43,0.27!,10,2
-0.036,0.625,0.009,0.045,0.023,0.036,0.030,0.044
,-0.44,0.27!,10,2
-0.036,0.625,0.009,0.045,0.022,0.036,0.026,0.044
,-0.44,0.27!,10,2
-0.036,0.625,0.010,0.046,0.022,0.036,0.026,0.045
,-0.43,0.28!,10,2
-0.036,0.625,0.011,0.047,0.023,0.036,0.026,0.045
,-0.41,0.28!,10,2
-0.036,0.625,0.011,0.047,0.023,0.036,0.026,0.045
,-0.41,0.29!,10,2
-0.036,0.625,0.010,0.047,0.024,0.037,0.025,0.045
,-0.42,0.29!,10,2
-0.036,0.625,0.010,0.047,0.024,0.037,0.025,0.046
,-0.42,0.29!,10,2
-0.036,0.625,0.010,0.047,0.024,0.036,0.024,0.045
,-0.42,0.30!,10,2
-0.036,0.625,0.011,0.047,0.024,0.036,0.023,0.046
,-0.43,0.30!,10,2
-0.036,0.625,0.010,0.047,0.024,0.036,0.023,0.045
,-0.43,0.29!,10,2
-0.036,0.625,0.010,0.047,0.024,0.035,0.023,0.046
,-0.42,0.28!,10,2
-0.036,0.625,0.010,0.047,0.024,0.035,0.023,0.045
,-0.42,0.28!,10,2
-0.036,0.625,0.010,0.046,0.024,0.035,0.023,0.044
,-0.43,0.28!,10,2
-0.036,0.625,0.009,0.045,0.023,0.035,0.023,0.045
,-0.43,0.27!,10,2
-0.036,0.625,0.011,0.045,0.024,0.036,0.023,0.044
,-0.43,0.27!,10,2
-0.036,0.625,0.011,0.045,0.022,0.035,0.023,0.046
,-0.40,0.27!,10,2
-0.036,0.625,0.011,0.045,0.023,0.036,0.024,0.046
,-0.38,0.27!,10,2
-0.036,0.625,0.010,0.042,0.023,0.036,0.026,0.045
,-0.37,0.27!,10,2
-0.036,0.625,0.011,0.040,0.023,0.036,0.026,0.045
,-0.37,0.27!,10,2
-0.036,0.625,0.011,0.038,0.023,0.036,0.026,0.045
,-0.35,0.28!,10,2
-0.036,0.625,0.011,0.035,0.022,0.036,0.026,0.044
,-0.33,0.29!,10,2
-0.036,0.625,0.011,0.033,0.022,0.037,0.027,0.044
,-0.31,0.29!,10,2
-0.036,0.625,0.011,0.030,0.022,0.037,0.028,0.045
,-0.29,0.29!,10,2
-0.036,0.625,0.011,0.027,0.022,0.036,0.028,0.045
,-0.26,0.30!,10,2
-0.036,0.625,0.010,0.023,0.020,0.036,0.028,0.045
,-0.23,0.30!,10,2
-0.036,0.625,0.010,0.019,0.019,0.035,0.028,0.043
,-0.20,0.29!,10,2
-0.036,0.625,0.010,0.014,0.018,0.035,0.028,0.043
,-0.17,0.28!,10,2
-0.036,0.625,0.011,0.013,0.017,0.035,0.026,0.044
,-0.12,0.27!,10,2
-0.036,0.625,0.012,0.012,0.016,0.036,0.027,0.044
,-0.08,0.27!,10,2
-0.036,0.625,0.012,0.013,0.015,0.035,0.027,0.043
,-0.08,0.27!,10,2
-0.036,0.625,0.012,0.013,0.014,0.035,0.026,0.043
,-0.11,0.27!,10,2
-0.036,0.625,0.012,0.014,0.013,0.034,0.026,0.045
,-0.14,0.27!,10,2
-0.036,0.625,0.011,0.014,0.012,0.035,0.026,0.045
,-0.15,0.26!,10,2
-0.036,0.625,0.012,0.014,0.012,0.035,0.025,0.045
,-0.16,0.25!,10,2
-0.036,0.625,0.012,0.013,0.013,0.036,0.023,0.046
,-0.18,0.26!,10,2
-0.036,0.625,0.012,0.013,0.014,0.036,0.023,0.045
,-0.17,0.27!,10,2
-0.036,0.625,0.012,0.013,0.014,0.036,0.022,0.043
,-0.15,0.28!,10,2
-0.036,0.625,0.012,0.014,0.014,0.036,0.023,0.044
,-0.14,0.28!,10,2
-0.036,0.625,0.010,0.014,0.013,0.036,0.025,0.044
,-0.14,0.29!,10,2
-0.036,0.625,0.011,0.014,0.013,0.036,0.024,0.044
,-0.17,0.29!,10,2
-0.036,0.625,0.010,0.014,0.014,0.037,0.025,0.044
,-0.20,0.29!,10,2
-0.036,0.625,0.010,0.015,0.014,0.036,0.025,0.043
,-0.20,0.29!,10,2
-0.036,0.625,0.011,0.015,0.014,0.036,0.025,0.043
,-0.20,0.28!,10,2
-0.036,0.625,0.011,0.015,0.014,0.036,0.025,0.044
,-0.15,0.28!,10,2
-0.036,0.625,0.011,0.016,0.013,0.037,0.026,0.043
,-0.06,0.28!,10,2
-0.036,0.625,0.011,0.016,0.013,0.037,0.026,0.043
,-0.02,0.29!,10,2
-0.036,0.625,0.011,0.015,0.013,0.037,0.026,0.043
,-0.02,0.29!,10,2
-0.036,0.625,0.010,0.015,0.013,0.038,0.025,0.042
,-0.04,0.30!,10,2
-0.036,0.625,0.010,0.014,0.013,0.038,0.025,0.042
,-0.04,0.31!,10,2
-0.036,0.625,0.009,0.014,0.013,0.038,0.026,0.044
,-0.04,0.32!,10,2
-0.036,0.625,0.010,0.014,0.012,0.038,0.026,0.045
,-0.04,0.32!,10,2
-0.036,0.625,0.010,0.013,0.013,0.038,0.025,0.045
,-0.04,0.32!,10,2
-0.036,0.625,0.011,0.013,0.013,0.038,0.025,0.044
,-0.03,0.32!,10,2
-0.036,0.625,0.011,0.013,0.013,0.038,0.025,0.044
,-0.06,0.32!,10,2
-0.036,0.625,0.011,0.013,0.014,0.037,0.025,0.045
,-0.13,0.32!,10,2
-0.036,0.625,0.012,0.013,0.013,0.038,0.026,0.045
,-0.15,0.32!,10,2
-0.036,0.625,0.012,0.014,0.013,0.038,0.027,0.045
,-0.16,0.32!,10,2
-0.036,0.625,0.012,0.014,0.012,0.039,0.028,0.046
,-0.15,0.32!,10,2
-0.036,0.625,0.012,0.013,0.014,0.039,0.027,0.046
,-0.10,0.33!,10,2
-0.036,0.625,0.012,0.013,0.014,0.040,0.026,0.045
,-0.01,0.34!,10,2
-0.036,0.625,0.012,0.013,0.014,0.039,0.025,0.043
,-0.03,0.34!,10,2
-0.036,0.625,0.012,0.013,0.014,0.039,0.026,0.045
,-0.10,0.35!,10,2
-0.036,0.625,0.010,0.013,0.014,0.039,0.026,0.045
,-0.14,0.35!,10,2
-0.036,0.625,0.010,0.013,0.013,0.040,0.027,0.044
,-0.16,0.34!,10,2
-0.036,0.625,0.010,0.013,0.014,0.040,0.026,0.043
,-0.17,0.34!,10,2
-0.036,0.625,0.009,0.013,0.014,0.039,0.026,0.044
,-0.17,0.35!,10,2
-0.036,0.625,0.010,0.014,0.014,0.038,0.025,0.044
,-0.17,0.35!,10,2
-0.036,0.625,0.011,0.015,0.014,0.036,0.025,0.044
,-0.17,0.33!,10,2
-0.036,0.625,0.010,0.015,0.013,0.037,0.025,0.045
,-0.13,0.31!,10,2
-0.036,0.625,0.010,0.016,0.013,0.035,0.025,0.044
,-0.06,0.28!,10,2
-0.036,0.625,0.010,0.017,0.013,0.036,0.026,0.044
,-0.04,0.27!,10,2
-0.036,0.625,0.010,0.017,0.013,0.035,0.027,0.043
,-0.05,0.26!,10,2
-0.036,0.625,0.009,0.017,0.013,0.035,0.027,0.043
,-0.06,0.26!,10,2
-0.036,0.625,0.008,0.017,0.014,0.035,0.028,0.044
,-0.08,0.26!,10,2
-0.036,0.625,0.009,0.018,0.013,0.034,0.028,0.044
,-0.09,0.27!,10,2
-0.036,0.625,0.009,0.019,0.013,0.035,0.027,0.044
,-0.10,0.27!,10,2
-0.036,0.625,0.009,0.018,0.013,0.035,0.026,0.045
,-0.10,0.27!,10,2
-0.036,0.625,0.010,0.019,0.013,0.034,0.026,0.045
,-0.09,0.28!,10,2
-0.036,0.625,0.011,0.020,0.013,0.034,0.028,0.044
,-0.09,0.27!,10,2
-0.036,0.625,0.010,0.020,0.013,0.035,0.027,0.044
,-0.09,0.26!,10,2
-0.036,0.625,0.011,0.019,0.013,0.037,0.026,0.045
,-0.08,0.26!,10,2
-0.036,0.625,0.011,0.020,0.012,0.037,0.025,0.044
,-0.08,0.27!,10,2
-0.036,0.625,0.011,0.021,0.012,0.037,0.026,0.044
,-0.06,0.29!,10,2
-0.036,0.625,0.011,0.021,0.013,0.037,0.025,0.043
,-0.07,0.30!,10,2
-0.036,0.625,0.011,0.021,0.014,0.037,0.025,0.043
,-0.09,0.30!,10,2
-0.036,0.625,0.011,0.021,0.014,0.037,0.026,0.043
,-0.10,0.30!,10,2
-0.036,0.625,0.010,0.021,0.014,0.038,0.026,0.043
,-0.10,0.30!,10,2
-0.036,0.625,0.009,0.020,0.014,0.038,0.026,0.043
,-0.10,0.30!,10,2
-0.036,0.625,0.008,0.020,0.014,0.037,0.025,0.042
,-0.11,0.31!,10,2
-0.036,0.625,0.008,0.020,0.014,0.037,0.026,0.044
,-0.13,0.31!,10,2
-0.036,0.625,0.008,0.020,0.015,0.034,0.026,0.044
,-0.14,0.31!,10,2
-0.036,0.625,0.008,0.019,0.015,0.032,0.026,0.044
,-0.14,0.31!,10,2
-0.036,0.625,0.010,0.019,0.015,0.033,0.025,0.044
,-0.14,0.27!,10,2
-0.036,0.625,0.010,0.018,0.014,0.033,0.025,0.045
,-0.12,0.23!,10,2
-0.036,0.625,0.010,0.019,0.013,0.034,0.026,0.045
,-0.09,0.22!,10,2
-0.036,0.625,0.010,0.019,0.014,0.034,0.026,0.046
,-0.08,0.23!,10,2
-0.036,0.625,0.010,0.018,0.013,0.034,0.026,0.046
,-0.09,0.24!,10,2
-0.036,0.625,0.010,0.018,0.013,0.034,0.026,0.046
,-0.09,0.25!,10,2
-0.036,0.625,0.010,0.018,0.013,0.035,0.027,0.047
,-0.08,0.26!,10,2
-0.036,0.625,0.010,0.018,0.013,0.035,0.026,0.046
,-0.08,0.26!,10,2
-0.036,0.625,0.010,0.019,0.012,0.035,0.027,0.046
,-0.08,0.26!,10,2
-0.036,0.625,0.009,0.019,0.012,0.036,0.028,0.047
,-0.08,0.27!,10,2
-0.036,0.625,0.008,0.019,0.012,0.036,0.028,0.047
,-0.09,0.28!,10,2
-0.036,0.625,0.009,0.019,0.013,0.037,0.028,0.045
,-0.10,0.29!,10,2
-0.036,0.625,0.009,0.019,0.013,0.037,0.027,0.046
,-0.12,0.30!,10,2
-0.036,0.625,0.008,0.019,0.012,0.036,0.027,0.044
,-0.12,0.31!,10,2
-0.036,0.625,0.009,0.020,0.012,0.037,0.026,0.043
,-0.11,0.30!,10,2
-0.036,0.625,0.009,0.021,0.013,0.037,0.025,0.042
,-0.10,0.29!,10,2
-0.036,0.625,0.008,0.021,0.014,0.038,0.024,0.043
,-0.11,0.29!,10,2
-0.036,0.625,0.008,0.022,0.015,0.038,0.025,0.043
,-0.12,0.30!,10,2
-0.036,0.625,0.009,0.021,0.015,0.038,0.024,0.041
,-0.14,0.31!,10,2
-0.036,0.625,0.009,0.021,0.015,0.039,0.024,0.041
,-0.15,0.32!,10,2
-0.036,0.625,0.009,0.021,0.015,0.038,0.026,0.042
,-0.13,0.33!,10,2
-0.036,0.625,0.009,0.021,0.014,0.039,0.025,0.041
,-0.13,0.34!,10,2
-0.036,0.625,0.009,0.021,0.014,0.039,0.025,0.040
,-0.13,0.34!,10,2
-0.036,0.625,0.009,0.021,0.015,0.038,0.024,0.040
,-0.13,0.34!,10,2
-0.036,0.625,0.009,0.019,0.015,0.038,0.024,0.041
,-0.13,0.33!,10,2
-0.036,0.625,0.010,0.019,0.014,0.038,0.025,0.042
,-0.12,0.32!,10,2
-0.036,0.625,0.011,0.019,0.013,0.038,0.026,0.041
,-0.11,0.31!,10,2
-0.036,0.625,0.010,0.019,0.012,0.038,0.025,0.042
,-0.09,0.31!,10,2
-0.036,0.625,0.010,0.019,0.012,0.039,0.024,0.043
,-0.07,0.32!,10,2
-0.036,0.625,0.010,0.019,0.013,0.040,0.023,0.043
,-0.07,0.32!,10,2
-0.036,0.625,0.010,0.019,0.013,0.039,0.022,0.042
,-0.08,0.33!,10,2
-0.036,0.625,0.010,0.019,0.013,0.039,0.023,0.042
,-0.09,0.35!,10,2
-0.036,0.625,0.010,0.019,0.013,0.038,0.024,0.042
,-0.09,0.35!,10,2
-0.036,0.625,0.010,0.018,0.013,0.039,0.024,0.042
,-0.09,0.34!,10,2
-0.036,0.625,0.011,0.019,0.013,0.038,0.026,0.042
,-0.09,0.33!,10,2
-0.036,0.625,0.010,0.018,0.013,0.038,0.026,0.041
,-0.08,0.34!,10,2
-0.036,0.625,0.010,0.018,0.014,0.038,0.026,0.040
,-0.07,0.33!,10,2
-0.036,0.625,0.010,0.017,0.014,0.037,0.026,0.040
,-0.07,0.32!,10,2
-0.036,0.625,0.011,0.017,0.013,0.035,0.026,0.041
,-0.08,0.31!,10,2
-0.036,0.625,0.010,0.016,0.012,0.035,0.027,0.040
,-0.07,0.30!,10,2
-0.036,0.625,0.012,0.016,0.014,0.036,0.027,0.041
,-0.05,0.29!,10,2
-0.036,0.625,0.012,0.016,0.013,0.036,0.026,0.041
,-0.03,0.27!,10,2
-0.036,0.625,0.012,0.015,0.014,0.036,0.025,0.042
,-0.01,0.28!,10,2
-0.036,0.625,0.012,0.015,0.014,0.038,0.025,0.041
,-0.01,0.28!,10,2
-0.036,0.625,0.011,0.014,0.014,0.038,0.024,0.041
,-0.01,0.30!,10,2
-0.036,0.625,0.011,0.014,0.013,0.037,0.024,0.043
,-0.02,0.32!,10,2
-0.036,0.625,0.011,0.014,0.013,0.038,0.025,0.044
,-0.02,0.32!,10,2
-0.036,0.625,0.012,0.014,0.013,0.039,0.025,0.042
,-0.02,0.31!,10,2
-0.036,0.625,0.011,0.015,0.013,0.040,0.025,0.043
,-0.02,0.31!,10,2
-0.036,0.625,0.012,0.015,0.013,0.038,0.024,0.044
,-0.03,0.33!,10,2
-0.036,0.625,0.010,0.016,0.012,0.038,0.024,0.043
,-0.04,0.33!,10,2
-0.036,0.625,0.010,0.015,0.012,0.038,0.025,0.043
,-0.05,0.31!,10,2
-0.036,0.625,0.011,0.015,0.011,0.038,0.025,0.043
,-0.07,0.31!,10,2
-0.036,0.625,0.010,0.015,0.011,0.036,0.026,0.045
,-0.05,0.31!,10,2
-0.036,0.625,0.010,0.016,0.011,0.036,0.026,0.044
,-0.03,0.30!,10,2
-0.036,0.625,0.010,0.017,0.012,0.036,0.026,0.044
,-0.03,0.28!,10,2
-0.036,0.625,0.009,0.017,0.010,0.035,0.026,0.044
,-0.04,0.28!,10,2
-0.036,0.625,0.009,0.017,0.010,0.035,0.025,0.045
,-0.07,0.28!,10,2
-0.036,0.625,0.009,0.016,0.010,0.034,0.026,0.044
,-0.08,0.28!,10,2
-0.036,0.625,0.008,0.016,0.011,0.033,0.026,0.045
,-0.07,0.27!,10,2
-0.036,0.625,0.009,0.015,0.011,0.034,0.025,0.045
,-0.06,0.26!,10,2
-0.036,0.625,0.008,0.016,0.012,0.035,0.025,0.046
,-0.06,0.24!,10,2
-0.036,0.625,0.008,0.016,0.012,0.035,0.025,0.047
,-0.05,0.25!,10,2
-0.036,0.625,0.008,0.016,0.011,0.036,0.026,0.046
,-0.06,0.27!,10,2
-0.036,0.625,0.008,0.014,0.011,0.036,0.027,0.046
,-0.08,0.28!,10,2
-0.036,0.625,0.010,0.014,0.011,0.036,0.026,0.045
,-0.07,0.29!,10,2
-0.036,0.625,0.010,0.014,0.012,0.036,0.026,0.046
,-0.06,0.29!,10,2
-0.036,0.625,0.010,0.015,0.012,0.036,0.026,0.046
,-0.04,0.29!,10,2
-0.036,0.625,0.010,0.015,0.013,0.038,0.027,0.045
,-0.03,0.29!,10,2
-0.036,0.625,0.009,0.014,0.012,0.039,0.027,0.045
,-0.03,0.29!,10,2
-0.036,0.625,0.010,0.014,0.011,0.039,0.027,0.045
,-0.04,0.30!,10,2
-0.036,0.625,0.010,0.014,0.012,0.039,0.027,0.044
,-0.04,0.33!,10,2
-0.036,0.625,0.010,0.014,0.013,0.039,0.027,0.043
,-0.03,0.34!,10,2
-0.036,0.625,0.010,0.014,0.013,0.039,0.026,0.043
,-0.03,0.34!,10,2
-0.036,0.625,0.011,0.015,0.013,0.039,0.025,0.043
,-0.03,0.33!,10,2
-0.036,0.625,0.009,0.015,0.013,0.040,0.026,0.044
,-0.03,0.33!,10,2
-0.036,0.625,0.010,0.015,0.012,0.040,0.027,0.044
,-0.03,0.34!,10,2
-0.036,0.625,0.010,0.015,0.012,0.040,0.028,0.042
,-0.03,0.35!,10,2
-0.036,0.625,0.010,0.016,0.011,0.039,0.026,0.043
,-0.04,0.35!,10,2
-0.036,0.625,0.010,0.016,0.011,0.038,0.027,0.043
,-0.04,0.35!,10,2
-0.036,0.625,0.010,0.017,0.013,0.037,0.027,0.044
,-0.05,0.34!,10,2
-0.036,0.625,0.010,0.017,0.012,0.037,0.028,0.044
,-0.06,0.32!,10,2
-0.036,0.625,0.010,0.017,0.012,0.037,0.027,0.045
,-0.06,0.31!,10,2
-0.036,0.625,0.010,0.016,0.012,0.038,0.028,0.046
,-0.06,0.30!,10,2
-0.036,0.625,0.009,0.016,0.012,0.038,0.027,0.046
,-0.06,0.31!,10,2
-0.036,0.625,0.009,0.016,0.012,0.037,0.026,0.044
,-0.07,0.32!,10,2
-0.036,0.625,0.008,0.016,0.013,0.038,0.025,0.043
,-0.07,0.32!,10,2
-0.036,0.625,0.008,0.015,0.013,0.038,0.024,0.044
,-0.08,0.30!,10,2
-0.036,0.625,0.008,0.014,0.013,0.038,0.024,0.045
,-0.09,0.30!,10,2
-0.036,0.625,0.010,0.015,0.013,0.038,0.023,0.045
,-0.08,0.31!,10,2
-0.036,0.625,0.008,0.014,0.012,0.039,0.024,0.044
,-0.07,0.32!,10,2
-0.036,0.625,0.009,0.014,0.013,0.039,0.023,0.044
,-0.07,0.32!,10,2
-0.036,0.625,0.009,0.013,0.013,0.040,0.023,0.042
,-0.07,0.32!,10,2
-0.036,0.625,0.009,0.014,0.013,0.040,0.022,0.041
,-0.06,0.33!,10,2
-0.036,0.625,0.009,0.013,0.013,0.040,0.023,0.043
,-0.05,0.34!,10,2
-0.036,0.625,0.010,0.012,0.013,0.042,0.024,0.044
,-0.04,0.35!,10,2
-0.036,0.625,0.010,0.011,0.012,0.040,0.025,0.043
,-0.03,0.36!,10,2
-0.036,0.625,0.011,0.011,0.012,0.040,0.025,0.044
,-0.02,0.38!,10,2
-0.036,0.625,0.010,0.011,0.012,0.041,0.027,0.043
,-0.01,0.38!,10,2
-0.036,0.625,0.009,0.011,0.012,0.041,0.026,0.044
,0.00,0.36!,10,2
-0.036,0.625,0.010,0.011,0.012,0.041,0.026,0.046
,-0.00,0.35!,10,2
-0.036,0.625,0.009,0.010,0.011,0.041,0.026,0.044
,-0.00,0.36!,10,2
-0.036,0.625,0.010,0.010,0.010,0.039,0.027,0.044
,0.00,0.36!,10,2
-0.036,0.625,0.010,0.010,0.009,0.039,0.027,0.046
,0.01,0.36!,10,2
-0.036,0.625,0.010,0.011,0.010,0.038,0.027,0.044
,0.02,0.35!,10,2
-0.036,0.625,0.009,0.010,0.011,0.036,0.027,0.044
,0.02,0.34!,10,2
-0.036,0.625,0.009,0.011,0.012,0.036,0.026,0.044
,0.01,0.31!,10,2
-0.036,0.625,0.009,0.011,0.012,0.038,0.026,0.044
,-0.00,0.28!,10,2
-0.036,0.625,0.009,0.010,0.012,0.039,0.025,0.045
,-0.02,0.29!,10,2
-0.036,0.625,0.009,0.010,0.012,0.039,0.026,0.044
,-0.01,0.32!,10,2
-0.036,0.625,0.010,0.010,0.012,0.038,0.026,0.042
,-0.01,0.33!,10,2
-0.036,0.625,0.010,0.010,0.012,0.038,0.026,0.045
,0.00,0.34!,10,2
-0.036,0.625,0.010,0.010,0.012,0.038,0.025,0.045
,0.01,0.33!,10,2
-0.036,0.625,0.009,0.009,0.013,0.040,0.025,0.046
,0.02,0.32!,10,2
-0.036,0.625,0.010,0.009,0.012,0.040,0.025,0.046
,0.01,0.33!,10,2
-0.036,0.625,0.011,0.009,0.011,0.042,0.025,0.045
,0.01,0.35!,10,2
-0.036,0.625,0.010,0.009,0.010,0.041,0.025,0.047
,0.02,0.37!,10,2
-0.036,0.625,0.010,0.009,0.010,0.038,0.025,0.047
,0.03,0.39!,10,2
-0.036,0.625,0.010,0.010,0.010,0.039,0.024,0.046
,0.03,0.36!,10,2
-0.036,0.625,0.011,0.010,0.010,0.039,0.025,0.046
,0.02,0.32!,10,2
-0.036,0.625,0.010,0.009,0.010,0.039,0.024,0.046
,0.02,0.31!,10,2
-0.036,0.625,0.011,0.009,0.010,0.039,0.024,0.044
,0.02,0.32!,10,2
-0.036,0.625,0.010,0.010,0.010,0.039,0.025,0.045
,0.02,0.33!,10,2
-0.036,0.625,0.010,0.010,0.010,0.037,0.026,0.044
,0.02,0.33!,10,2
-0.036,0.625,0.010,0.009,0.011,0.036,0.025,0.044
,0.01,0.32!,10,2
-0.036,0.625,0.009,0.009,0.011,0.035,0.025,0.045
,0.02,0.30!,10,2
-0.036,0.625,0.010,0.009,0.011,0.036,0.024,0.046
,0.03,0.28!,10,2
-0.036,0.625,0.010,0.008,0.010,0.037,0.025,0.044
,0.03,0.27!,10,2
-0.036,0.625,0.010,0.008,0.010,0.036,0.025,0.045
,0.03,0.28!,10,2
-0.036,0.625,0.010,0.010,0.010,0.036,0.024,0.045
,0.04,0.30!,10,2
-0.036,0.625,0.010,0.010,0.010,0.037,0.025,0.047
,0.04,0.30!,10,2
-0.036,0.625,0.010,0.010,0.011,0.036,0.026,0.047
,0.03,0.29!,10,2
-0.036,0.625,0.010,0.011,0.012,0.036,0.025,0.047
,0.02,0.29!,10,2
-0.036,0.625,0.010,0.010,0.012,0.036,0.025,0.048
,0.01,0.28!,10,2
-0.036,0.625,0.010,0.010,0.011,0.037,0.025,0.048
,-0.00,0.28!,10,2
-0.036,0.625,0.010,0.011,0.012,0.038,0.026,0.048
,0.00,0.28!,10,2
-0.036,0.625,0.010,0.011,0.012,0.038,0.026,0.047
,0.01,0.30!,10,2
-0.036,0.625,0.009,0.011,0.012,0.038,0.026,0.047
,0.01,0.32!,10,2
-0.036,0.625,0.009,0.011,0.012,0.038,0.026,0.046
,0.00,0.32!,10,2
-0.036,0.625,0.010,0.012,0.012,0.038,0.027,0.046
,-0.01,0.32!,10,2
-0.036,0.625,0.010,0.013,0.012,0.038,0.027,0.046
,-0.01,0.32!,10,2
-0.036,0.625,0.010,0.014,0.011,0.037,0.025,0.046
,-0.02,0.32!,10,2
-0.036,0.625,0.010,0.015,0.010,0.039,0.025,0.046
,-0.02,0.31!,10,2
-0.036,0.625,0.010,0.016,0.010,0.039,0.023,0.045
,-0.03,0.30!,10,2
-0.036,0.625,0.010,0.017,0.010,0.039,0.025,0.044
,-0.04,0.31!,10,2
-0.036,0.625,0.009,0.018,0.011,0.039,0.025,0.043
,-0.05,0.32!,10,2
-0.036,0.625,0.010,0.019,0.010,0.039,0.026,0.042
,-0.06,0.33!,10,2
-0.036,0.625,0.010,0.019,0.011,0.039,0.026,0.043
,-0.07,0.33!,10,2
-0.036,0.625,0.010,0.020,0.011,0.039,0.027,0.045
,-0.08,0.33!,10,2
-0.036,0.625,0.009,0.020,0.012,0.039,0.026,0.045
,-0.08,0.33!,10,2
-0.036,0.625,0.008,0.019,0.013,0.039,0.027,0.045
,-0.08,0.33!,10,2
-0.036,0.625,0.009,0.019,0.013,0.041,0.027,0.045
,-0.09,0.33!,10,2
-0.036,0.625,0.010,0.020,0.013,0.040,0.028,0.045
,-0.10,0.35!,10,2
-0.036,0.625,0.009,0.020,0.013,0.041,0.029,0.045
,-0.10,0.37!,10,2
-0.036,0.625,0.010,0.021,0.016,0.043,0.028,0.047
,-0.09,0.37!,10,2
-0.036,0.625,0.010,0.020,0.015,0.043,0.027,0.048
,-0.09,0.37!,10,2
-0.036,0.625,0.009,0.020,0.017,0.043,0.027,0.047
,-0.09,0.38!,10,2
-0.036,0.625,0.009,0.020,0.017,0.043,0.028,0.047
,-0.10,0.39!,10,2
-0.036,0.625,0.009,0.021,0.017,0.043,0.027,0.046
,-0.11,0.39!,10,2
-0.036,0.625,0.010,0.021,0.017,0.043,0.027,0.045
,-0.12,0.39!,10,2
-0.036,0.625,0.010,0.022,0.018,0.043,0.026,0.044
,-0.13,0.39!,10,2
-0.036,0.625,0.009,0.022,0.018,0.041,0.026,0.046
,-0.13,0.39!,10,2
-0.036,0.625,0.008,0.021,0.018,0.041,0.025,0.047
,-0.13,0.38!,10,2
-0.036,0.625,0.010,0.020,0.018,0.041,0.025,0.047
,-0.13,0.36!,10,2
-0.036,0.625,0.009,0.020,0.016,0.039,0.026,0.046
,-0.14,0.35!,10,2
-0.036,0.625,0.010,0.020,0.016,0.038,0.026,0.046
,-0.14,0.36!,10,2
-0.036,0.625,0.010,0.020,0.015,0.037,0.027,0.045
,-0.13,0.35!,10,2
-0.036,0.625,0.010,0.020,0.015,0.039,0.025,0.045
,-0.11,0.32!,10,2
-0.036,0.625,0.010,0.019,0.016,0.038,0.025,0.045
,-0.10,0.32!,10,2
-0.036,0.625,0.010,0.019,0.017,0.037,0.026,0.046
,-0.09,0.34!,10,2
-0.035,0.625,0.011,0.019,0.015,0.037,0.027,0.046
,-0.09,0.33!,10,2
-0.035,0.625,0.011,0.019,0.015,0.038,0.027,0.043
,-0.08,0.31!,10,2
-0.035,0.625,0.011,0.020,0.015,0.037,0.027,0.042
,-0.14,0.30!,10,2
-0.035,0.625,0.010,0.020,0.016,0.036,0.028,0.044
,-0.17,0.32!,10,2
-0.035,0.625,0.010,0.020,0.017,0.036,0.028,0.044
,-0.11,0.31!,10,2
-0.035,0.625,0.010,0.020,0.016,0.037,0.028,0.044
,-0.09,0.29!,10,2
-0.034,0.625,0.011,0.019,0.016,0.037,0.026,0.045
,-0.09,0.29!,10,2
-0.033,0.625,0.011,0.021,0.016,0.035,0.026,0.046
,-0.09,0.30!,10,2
-0.033,0.625,0.011,0.021,0.015,0.036,0.026,0.045
,-0.09,0.29!,10,2
-0.033,0.625,0.010,0.022,0.016,0.038,0.026,0.045
,-0.23,0.27!,10,2
-0.033,0.625,0.010,0.022,0.017,0.038,0.026,0.044
,-0.32,0.28!,10,2
-0.033,0.625,0.010,0.022,0.018,0.038,0.026,0.045
,-0.20,0.31!,10,2
-0.033,0.625,0.010,0.021,0.018,0.038,0.025,0.046
,-0.12,0.33!,10,2
-0.033,0.625,0.009,0.021,0.018,0.038,0.024,0.043
,-0.10,0.32!,10,2
-0.033,0.625,0.010,0.021,0.018,0.038,0.024,0.045
,-0.11,0.32!,10,2
-0.033,0.625,0.010,0.021,0.018,0.038,0.023,0.045
,-0.13,0.32!,10,2
-0.033,0.625,0.009,0.021,0.019,0.038,0.024,0.044
,-0.13,0.32!,10,2
-0.033,0.625,0.009,0.020,0.019,0.038,0.025,0.044
,-0.12,0.32!,10,2
-0.033,0.625,0.010,0.020,0.019,0.037,0.024,0.044
,-0.12,0.32!,10,2
-0.033,0.625,0.011,0.020,0.017,0.036,0.023,0.044
,-0.13,0.32!,10,2
-0.033,0.625,0.011,0.019,0.016,0.036,0.023,0.045
,-0.11,0.31!,10,2
-0.033,0.625,0.010,0.019,0.016,0.038,0.024,0.045
,-0.09,0.29!,10,2
-0.033,0.625,0.010,0.021,0.016,0.038,0.024,0.044
,-0.08,0.29!,10,2
-0.033,0.625,0.010,0.020,0.016,0.040,0.024,0.044
,-0.09,0.32!,10,2
-0.033,0.625,0.009,0.021,0.015,0.041,0.024,0.043
,-0.11,0.34!,10,2
-0.033,0.625,0.009,0.020,0.015,0.041,0.025,0.043
,-0.11,0.36!,10,2
-0.033,0.625,0.009,0.021,0.015,0.041,0.024,0.043
,-0.11,0.36!,10,2
-0.033,0.625,0.009,0.020,0.015,0.042,0.023,0.042
,-0.12,0.36!,10,2
-0.033,0.625,0.008,0.020,0.016,0.043,0.024,0.043
,-0.12,0.37!,10,2
-0.033,0.625,0.008,0.021,0.016,0.042,0.024,0.043
,-0.12,0.38!,10,2
-0.033,0.625,0.008,0.021,0.015,0.043,0.025,0.043
,-0.12,0.38!,10,2
-0.033,0.625,0.009,0.021,0.014,0.042,0.024,0.043
,-0.13,0.38!,10,2
-0.033,0.625,0.009,0.020,0.014,0.041,0.024,0.044
,-0.12,0.37!,10,2
-0.033,0.625,0.010,0.020,0.014,0.040,0.025,0.044
,-0.11,0.37!,10,2
-0.033,0.625,0.010,0.020,0.014,0.039,0.025,0.044
,-0.10,0.36!,10,2
-0.033,0.625,0.010,0.020,0.015,0.039,0.025,0.044
,-0.09,0.35!,10,2
-0.033,0.625,0.010,0.021,0.015,0.040,0.025,0.043
,-0.09,0.34!,10,2
-0.033,0.625,0.011,0.021,0.015,0.040,0.026,0.046
,-0.09,0.33!,10,2
-0.033,0.625,0.010,0.021,0.015,0.042,0.027,0.046
,-0.10,0.34!,10,2
-0.033,0.625,0.010,0.020,0.015,0.042,0.027,0.046
,-0.09,0.34!,10,2
-0.033,0.625,0.010,0.020,0.015,0.049,0.028,0.046
,-0.09,0.36!,10,2
-0.033,0.625,0.009,0.021,0.015,0.051,0.028,0.047
,-0.10,0.37!,10,2
-0.033,0.625,0.009,0.021,0.015,0.052,0.028,0.046
,-0.10,0.43!,10,2
-0.033,0.625,0.009,0.022,0.015,0.052,0.029,0.048
,-0.11,0.50!,10,2
-0.033,0.625,0.010,0.021,0.015,0.053,0.030,0.048
,-0.12,0.53!,10,2
-0.033,0.625,0.009,0.021,0.014,0.054,0.031,0.047
,-0.12,0.54!,10,2
-0.033,0.625,0.010,0.021,0.014,0.054,0.031,0.048
,-0.12,0.54!,10,2
-0.033,0.625,0.010,0.022,0.013,0.055,0.031,0.047
,-0.12,0.56!,10,2
-0.033,0.625,0.010,0.022,0.014,0.054,0.032,0.047
,-0.11,0.57!,10,2
-0.033,0.625,0.010,0.023,0.014,0.054,0.031,0.047
,-0.11,0.58!,10,2
-0.033,0.625,0.010,0.023,0.014,0.048,0.030,0.047
,-0.11,0.58!,10,2
-0.033,0.625,0.011,0.022,0.014,0.046,0.030,0.047
,-0.11,0.56!,10,2
-0.033,0.625,0.011,0.022,0.014,0.047,0.031,0.048
,-0.11,0.52!,10,2
-0.033,0.625,0.010,0.022,0.014,0.046,0.030,0.047
,-0.10,0.45!,10,2
-0.033,0.625,0.010,0.022,0.015,0.046,0.030,0.047
,-0.10,0.43!,10,2
-0.033,0.625,0.010,0.022,0.014,0.048,0.029,0.047
,-0.11,0.42!,10,2
-0.033,0.625,0.010,0.022,0.014,0.048,0.029,0.047
,-0.12,0.44!,10,2
-0.033,0.625,0.010,0.021,0.013,0.049,0.028,0.046
,-0.12,0.47!,10,2
-0.033,0.625,0.010,0.020,0.014,0.047,0.027,0.045
,-0.11,0.49!,10,2
-0.033,0.625,0.011,0.020,0.013,0.046,0.026,0.045
,-0.10,0.49!,10,2
-0.033,0.625,0.010,0.021,0.015,0.045,0.028,0.045
,-0.09,0.47!,10,2
-0.033,0.625,0.010,0.021,0.015,0.048,0.029,0.044
,-0.08,0.44!,10,2
-0.033,0.625,0.010,0.021,0.015,0.049,0.028,0.044
,-0.09,0.45!,10,2
-0.033,0.625,0.011,0.021,0.014,0.050,0.027,0.044
,-0.10,0.47!,10,2
-0.033,0.625,0.010,0.020,0.016,0.051,0.027,0.044
,-0.10,0.49!,10,2
-0.033,0.625,0.010,0.020,0.016,0.049,0.026,0.044
,-0.09,0.50!,10,2
-0.033,0.625,0.010,0.021,0.016,0.049,0.026,0.044
,-0.09,0.50!,10,2
-0.034,0.625,0.011,0.021,0.016,0.049,0.026,0.046
,-0.10,0.48!,10,2
-0.034,0.625,0.010,0.022,0.015,0.048,0.026,0.045
,-0.10,0.47!,10,2
-0.034,0.625,0.011,0.021,0.016,0.049,0.027,0.046
,0.04,0.48!,10,2
-0.034,0.625,0.011,0.021,0.013,0.050,0.027,0.045
,0.11,0.49!,10,2
-0.034,0.625,0.011,0.021,0.014,0.050,0.025,0.045
,-0.02,0.49!,10,2
-0.034,0.625,0.011,0.021,0.015,0.048,0.025,0.045
,-0.10,0.49!,10,2
-0.034,0.625,0.010,0.021,0.015,0.047,0.025,0.046
,-0.11,0.50!,10,2
-0.034,0.625,0.010,0.021,0.013,0.047,0.024,0.045
,-0.10,0.48!,10,2
-0.034,0.625,0.010,0.021,0.013,0.047,0.025,0.044
,-0.09,0.46!,10,2
-0.034,0.625,0.010,0.020,0.013,0.045,0.026,0.044
,-0.10,0.45!,10,2
-0.034,0.625,0.009,0.020,0.014,0.046,0.025,0.045
,-0.10,0.45!,10,2
-0.034,0.625,0.009,0.019,0.014,0.048,0.025,0.044
,-0.10,0.45!,10,2
-0.034,0.625,0.009,0.019,0.014,0.048,0.025,0.046
,-0.10,0.45!,10,2
-0.034,0.625,0.010,0.019,0.014,0.048,0.025,0.046
,-0.10,0.45!,10,2
-0.034,0.625,0.010,0.018,0.013,0.046,0.025,0.047
,-0.09,0.46!,10,2
-0.033,0.625,0.010,0.017,0.012,0.047,0.026,0.047
,-0.08,0.46!,10,2
-0.034,0.625,0.011,0.017,0.012,0.048,0.027,0.047
,-0.06,0.44!,10,2
-0.033,0.625,0.010,0.016,0.013,0.047,0.027,0.047
,-0.06,0.44!,10,2
-0.034,0.625,0.010,0.016,0.013,0.047,0.027,0.048
,-0.06,0.46!,10,2
-0.033,0.625,0.010,0.017,0.013,0.048,0.026,0.048
,-0.06,0.47!,10,2
-0.034,0.625,0.010,0.016,0.012,0.047,0.026,0.047
,-0.05,0.46!,10,2
-0.034,0.625,0.011,0.016,0.011,0.045,0.026,0.048
,-0.05,0.45!,10,2
-0.034,0.625,0.011,0.015,0.012,0.046,0.026,0.048
,-0.04,0.45!,10,2
-0.034,0.625,0.010,0.015,0.012,0.045,0.025,0.048
,-0.02,0.45!,10,2
-0.034,0.625,0.009,0.016,0.012,0.045,0.024,0.048
,-0.02,0.44!,10,2
-0.034,0.625,0.010,0.018,0.012,0.043,0.024,0.049
,-0.04,0.44!,10,2
-0.034,0.625,0.009,0.017,0.011,0.041,0.024,0.049
,-0.05,0.43!,10,2
-0.034,0.625,0.010,0.017,0.011,0.041,0.023,0.049
,-0.05,0.40!,10,2
-0.034,0.625,0.010,0.016,0.011,0.041,0.023,0.049
,-0.05,0.36!,10,2
-0.034,0.625,0.010,0.018,0.010,0.040,0.025,0.048
,-0.04,0.35!,10,2
-0.034,0.625,0.010,0.018,0.011,0.041,0.026,0.048
,-0.04,0.36!,10,2
-0.034,0.625,0.009,0.019,0.012,0.042,0.026,0.049
,-0.05,0.36!,10,2
-0.034,0.625,0.010,0.019,0.011,0.043,0.025,0.046
,-0.06,0.37!,10,2
-0.034,0.625,0.010,0.019,0.011,0.043,0.026,0.046
,-0.08,0.38!,10,2
-0.034,0.625,0.010,0.017,0.011,0.043,0.027,0.045
,-0.08,0.39!,10,2
-0.033,0.625,0.010,0.016,0.011,0.043,0.026,0.044
,-0.07,0.40!,10,2
-0.034,0.625,0.010,0.016,0.012,0.044,0.025,0.044
,-0.05,0.40!,10,2
-0.033,0.625,0.009,0.016,0.012,0.044,0.025,0.044
,-0.04,0.40!,10,2
-0.034,0.625,0.010,0.016,0.012,0.045,0.026,0.043
,-0.05,0.41!,10,2
-0.034,0.625,0.010,0.015,0.011,0.045,0.025,0.045
,-0.06,0.42!,10,2
-0.034,0.625,0.011,0.015,0.011,0.044,0.024,0.044
,-0.06,0.43!,10,2
-0.034,0.625,0.010,0.014,0.011,0.042,0.024,0.043
,-0.05,0.42!,10,2
-0.034,0.625,0.010,0.015,0.012,0.041,0.024,0.045
,-0.04,0.41!,10,2
-0.034,0.625,0.010,0.015,0.013,0.041,0.023,0.045
,-0.04,0.39!,10,2
-0.034,0.625,0.011,0.016,0.013,0.041,0.023,0.046
,-0.04,0.36!,10,2
-0.034,0.625,0.011,0.016,0.012,0.041,0.023,0.046
,-0.05,0.36!,10,2
-0.034,0.625,0.011,0.015,0.012,0.040,0.023,0.048
,-0.05,0.36!,10,2
-0.034,0.625,0.011,0.015,0.011,0.039,0.023,0.047
,-0.04,0.35!,10,2
-0.034,0.625,0.010,0.015,0.011,0.037,0.023,0.047
,-0.02,0.35!,10,2
-0.034,0.625,0.010,0.016,0.011,0.038,0.023,0.046
,-0.02,0.32!,10,2
-0.034,0.625,0.010,0.017,0.012,0.038,0.023,0.045
,-0.02,0.30!,10,2
-0.033,0.625,0.011,0.017,0.010,0.041,0.025,0.047
,-0.04,0.30!,10,2
-0.034,0.625,0.011,0.016,0.010,0.043,0.027,0.047
,-0.05,0.31!,10,2
-0.033,0.625,0.011,0.016,0.010,0.044,0.029,0.046
,-0.04,0.34!,10,2
-0.033,0.625,0.011,0.017,0.010,0.047,0.030,0.047
,-0.03,0.39!,10,2
-0.033,0.625,0.010,0.017,0.010,0.047,0.032,0.048
,-0.03,0.43!,10,2
-0.033,0.625,0.010,0.017,0.011,0.047,0.035,0.047
,-0.04,0.46!,10,2
-0.033,0.625,0.010,0.017,0.012,0.046,0.035,0.049
,-0.05,0.47!,10,2
-0.033,0.625,0.010,0.017,0.011,0.047,0.034,0.048
,-0.06,0.46!,10,2
-0.033,0.625,0.011,0.015,0.012,0.045,0.035,0.048
,-0.06,0.46!,10,2
-0.033,0.625,0.011,0.013,0.012,0.046,0.035,0.049
,-0.05,0.46!,10,2
-0.033,0.625,0.011,0.013,0.012,0.043,0.034,0.048
,-0.02,0.45!,10,2
-0.033,0.625,0.011,0.013,0.012,0.041,0.032,0.048
,-0.00,0.45!,10,2
-0.033,0.625,0.011,0.012,0.012,0.040,0.031,0.048
,0.00,0.41!,10,2
-0.033,0.625,0.011,0.011,0.013,0.036,0.031,0.048
,-0.00,0.37!,10,2
-0.033,0.625,0.012,0.011,0.013,0.039,0.029,0.048
,0.00,0.32!,10,2
-0.033,0.625,0.013,0.011,0.013,0.038,0.026,0.045
,0.01,0.27!,10,2
-0.033,0.625,0.012,0.011,0.013,0.040,0.027,0.045
,0.03,0.27!,10,2
-0.033,0.625,0.012,0.011,0.014,0.042,0.028,0.046
,0.03,0.30!,10,2
-0.033,0.625,0.011,0.010,0.014,0.043,0.028,0.046
,0.02,0.33!,10,2
-0.033,0.625,0.012,0.010,0.015,0.043,0.028,0.046
,0.01,0.38!,10,2
-0.033,0.625,0.011,0.010,0.015,0.043,0.029,0.047
,0.00,0.39!,10,2
-0.033,0.625,0.011,0.010,0.015,0.043,0.029,0.047
,0.00,0.40!,10,2
-0.033,0.625,0.011,0.012,0.014,0.044,0.029,0.047
,0.01,0.39!,10,2
-0.033,0.625,0.011,0.011,0.014,0.044,0.028,0.047
,0.01,0.39!,10,2
-0.033,0.625,0.011,0.011,0.015,0.043,0.027,0.046
,0.01,0.40!,10,2
-0.033,0.625,0.010,0.010,0.016,0.042,0.027,0.047
,0.01,0.40!,10,2
-0.033,0.625,0.010,0.010,0.017,0.042,0.026,0.047
,0.01,0.40!,10,2
-0.033,0.625,0.011,0.010,0.016,0.040,0.026,0.047
,0.01,0.38!,10,2
-0.033,0.625,0.011,0.011,0.016,0.040,0.025,0.047
,-0.00,0.36!,10,2
-0.033,0.625,0.011,0.012,0.016,0.040,0.025,0.047
,0.00,0.34!,10,2
-0.033,0.625,0.011,0.011,0.017,0.039,0.024,0.045
,-0.00,0.34!,10,2
-0.033,0.625,0.011,0.011,0.017,0.040,0.024,0.044
,-0.01,0.34!,10,2
-0.033,0.625,0.011,0.011,0.017,0.039,0.023,0.045
,-0.01,0.35!,10,2
-0.033,0.625,0.012,0.011,0.017,0.040,0.023,0.044
,-0.01,0.35!,10,2
-0.033,0.625,0.010,0.010,0.016,0.040,0.024,0.045
,-0.00,0.35!,10,2
-0.033,0.625,0.011,0.010,0.015,0.040,0.023,0.046
,-0.01,0.35!,10,2
-0.033,0.625,0.011,0.010,0.016,0.040,0.024,0.046
,-0.02,0.35!,10,2
-0.034,0.625,0.012,0.010,0.016,0.040,0.025,0.046
,-0.01,0.35!,10,2
-0.034,0.625,0.011,0.009,0.016,0.039,0.026,0.045
,0.01,0.35!,10,2
-0.034,0.625,0.011,0.010,0.017,0.037,0.025,0.046
,0.01,0.35!,10,2
-0.034,0.625,0.011,0.010,0.015,0.037,0.025,0.046
,0.00,0.33!,10,2
-0.034,0.625,0.011,0.010,0.015,0.037,0.025,0.047
,-0.00,0.30!,10,2
-0.034,0.625,0.011,0.009,0.016,0.039,0.026,0.047
,0.00,0.29!,10,2
-0.034,0.625,0.011,0.009,0.016,0.037,0.026,0.047
,0.01,0.30!,10,2
-0.034,0.625,0.012,0.009,0.016,0.036,0.026,0.045
,0.02,0.30!,10,2
-0.034,0.625,0.011,0.009,0.016,0.035,0.027,0.045
,0.02,0.29!,10,2
-0.034,0.625,0.011,0.009,0.015,0.035,0.026,0.045
,0.03,0.28!,10,2
-0.034,0.625,0.011,0.010,0.015,0.036,0.026,0.045
,0.03,0.27!,10,2
-0.034,0.625,0.012,0.011,0.015,0.037,0.026,0.046
,0.02,0.27!,10,2
-0.034,0.625,0.012,0.010,0.016,0.038,0.025,0.044
,0.02,0.29!,10,2
-0.034,0.625,0.012,0.010,0.017,0.038,0.025,0.044
,0.02,0.30!,10,2
-0.034,0.625,0.012,0.010,0.016,0.039,0.025,0.042
,0.03,0.32!,10,2
-0.034,0.625,0.012,0.011,0.016,0.039,0.026,0.041
,0.03,0.33!,10,2
-0.034,0.625,0.011,0.010,0.016,0.039,0.026,0.042
,0.03,0.34!,10,2
-0.034,0.625,0.010,0.010,0.016,0.039,0.026,0.043
,0.03,0.34!,10,2
-0.034,0.625,0.010,0.011,0.016,0.040,0.025,0.042
,0.02,0.33!,10,2
-0.034,0.625,0.010,0.012,0.016,0.039,0.024,0.043
,-0.01,0.34!,10,2
-0.034,0.625,0.010,0.013,0.016,0.039,0.025,0.045
,-0.02,0.35!,10,2
-0.034,0.625,0.009,0.013,0.016,0.039,0.024,0.045
,-0.03,0.35!,10,2
-0.034,0.625,0.010,0.015,0.015,0.040,0.024,0.046
,-0.04,0.34!,10,2
-0.034,0.625,0.009,0.015,0.013,0.040,0.024,0.045
,-0.06,0.34!,10,2
-0.034,0.625,0.010,0.016,0.014,0.039,0.024,0.046
,-0.08,0.32!,10,2
-0.034,0.625,0.010,0.017,0.013,0.038,0.025,0.046
,-0.08,0.31!,10,2
-0.034,0.625,0.010,0.018,0.013,0.037,0.025,0.045
,-0.08,0.30!,10,2
-0.034,0.625,0.010,0.019,0.014,0.039,0.026,0.045
,-0.07,0.29!,10,2
-0.034,0.625,0.010,0.020,0.014,0.039,0.026,0.046
,-0.08,0.27!,10,2
-0.034,0.625,0.010,0.020,0.015,0.041,0.027,0.045
,-0.09,0.28!,10,2
-0.034,0.625,0.011,0.019,0.015,0.042,0.026,0.044
,-0.10,0.29!,10,2
-0.034,0.625,0.009,0.019,0.015,0.041,0.027,0.044
,-0.10,0.32!,10,2
-0.034,0.625,0.011,0.019,0.014,0.040,0.027,0.045
,-0.10,0.34!,10,2
-0.034,0.625,0.011,0.020,0.014,0.040,0.027,0.046
,-0.11,0.34!,10,2
-0.034,0.625,0.010,0.020,0.015,0.040,0.026,0.045
,-0.10,0.32!,10,2
-0.034,0.625,0.009,0.020,0.015,0.040,0.026,0.046
,-0.09,0.31!,10,2
-0.034,0.625,0.011,0.019,0.016,0.041,0.026,0.047
,-0.10,0.31!,10,2
-0.034,0.625,0.011,0.019,0.015,0.039,0.025,0.046
,-0.11,0.32!,10,2
-0.034,0.625,0.010,0.019,0.014,0.039,0.025,0.045
,-0.11,0.33!,10,2
-0.034,0.625,0.010,0.019,0.014,0.036,0.024,0.046
,-0.09,0.33!,10,2
-0.034,0.625,0.010,0.019,0.014,0.036,0.025,0.046
,-0.08,0.31!,10,2
-0.034,0.625,0.010,0.020,0.015,0.036,0.025,0.044
,-0.08,0.29!,10,2
-0.034,0.625,0.009,0.018,0.015,0.038,0.025,0.045
,-0.09,0.27!,10,2
-0.034,0.625,0.010,0.018,0.015,0.039,0.024,0.044
,-0.09,0.27!,10,2
-0.034,0.625,0.010,0.019,0.014,0.039,0.026,0.044
,-0.08,0.29!,10,2
-0.034,0.625,0.010,0.019,0.014,0.040,0.025,0.044
,-0.08,0.30!,10,2
-0.034,0.625,0.009,0.020,0.015,0.040,0.025,0.043
,-0.08,0.30!,10,2
-0.034,0.625,0.009,0.019,0.016,0.040,0.025,0.043
,-0.10,0.31!,10,2
-0.034,0.625,0.009,0.019,0.015,0.040,0.024,0.043
,-0.11,0.31!,10,2
-0.034,0.625,0.010,0.019,0.015,0.040,0.025,0.043
,-0.12,0.32!,10,2
-0.034,0.625,0.010,0.019,0.015,0.040,0.025,0.043
,-0.11,0.32!,10,2
-0.034,0.625,0.010,0.020,0.015,0.041,0.024,0.043
,-0.09,0.32!,10,2
-0.034,0.625,0.009,0.020,0.015,0.039,0.026,0.043
,-0.09,0.32!,10,2
-0.034,0.625,0.009,0.020,0.016,0.039,0.026,0.042
,-0.09,0.31!,10,2
-0.034,0.625,0.009,0.019,0.017,0.038,0.025,0.044
,-0.11,0.30!,10,2
-0.034,0.625,0.010,0.019,0.016,0.038,0.024,0.044
,-0.12,0.29!,10,2
-0.034,0.625,0.010,0.018,0.015,0.037,0.024,0.044
,-0.11,0.28!,10,2
-0.034,0.625,0.011,0.018,0.014,0.037,0.024,0.044
,-0.09,0.28!,10,2
-0.034,0.625,0.011,0.019,0.014,0.038,0.024,0.043
,-0.07,0.27!,10,2
-0.034,0.625,0.011,0.019,0.014,0.039,0.024,0.043
,-0.06,0.28!,10,2
-0.034,0.625,0.010,0.019,0.014,0.041,0.023,0.044
,-0.07,0.29!,10,2
-0.034,0.625,0.011,0.019,0.015,0.041,0.023,0.044
,-0.08,0.31!,10,2
-0.034,0.625,0.011,0.019,0.014,0.041,0.022,0.044
,-0.07,0.33!,10,2
-0.034,0.625,0.010,0.019,0.014,0.040,0.023,0.044
,-0.07,0.34!,10,2
-0.034,0.625,0.010,0.019,0.013,0.039,0.022,0.042
,-0.08,0.34!,10,2
-0.034,0.625,0.009,0.019,0.014,0.039,0.022,0.043
,-0.09,0.32!,10,2
-0.034,0.625,0.009,0.019,0.014,0.039,0.023,0.042
,-0.10,0.30!,10,2
-0.034,0.625,0.008,0.018,0.014,0.039,0.023,0.043
,-0.11,0.30!,10,2
-0.034,0.625,0.009,0.018,0.014,0.038,0.023,0.043
,-0.12,0.30!,10,2
-0.034,0.625,0.009,0.018,0.014,0.038,0.024,0.044
,-0.12,0.30!,10,2
-0.034,0.625,0.010,0.018,0.014,0.036,0.024,0.043
,-0.11,0.29!,10,2
-0.034,0.625,0.010,0.018,0.015,0.037,0.025,0.043
,-0.10,0.27!,10,2
-0.034,0.625,0.009,0.017,0.016,0.037,0.024,0.044
,-0.09,0.26!,10,2
-0.034,0.625,0.010,0.017,0.016,0.038,0.025,0.044
,-0.08,0.26!,10,2
-0.034,0.625,0.010,0.017,0.015,0.038,0.025,0.044
,-0.07,0.27!,10,2
-0.034,0.625,0.010,0.016,0.014,0.039,0.026,0.043
,-0.07,0.28!,10,2
-0.034,0.625,0.010,0.017,0.014,0.038,0.026,0.044
,-0.07,0.29!,10,2
-0.034,0.625,0.010,0.017,0.013,0.039,0.026,0.045
,-0.07,0.29!,10,2
-0.034,0.625,0.009,0.017,0.013,0.039,0.025,0.044
,-0.07,0.29!,10,2
-0.034,0.625,0.009,0.017,0.013,0.041,0.024,0.043
,-0.07,0.29!,10,2
-0.034,0.625,0.010,0.016,0.013,0.042,0.024,0.044
,-0.07,0.30!,10,2
-0.034,0.625,0.011,0.016,0.011,0.041,0.024,0.043
,-0.07,0.32!,10,2
-0.034,0.625,0.011,0.017,0.009,0.041,0.025,0.042
,-0.06,0.34!,10,2
-0.034,0.625,0.011,0.017,0.009,0.041,0.024,0.044
,-0.04,0.35!,10,2
-0.034,0.625,0.010,0.017,0.009,0.040,0.025,0.043
,-0.03,0.34!,10,2
-0.034,0.625,0.010,0.017,0.009,0.041,0.025,0.043
,-0.03,0.33!,10,2
-0.034,0.625,0.010,0.016,0.011,0.041,0.025,0.044
,-0.04,0.31!,10,2
-0.034,0.625,0.010,0.016,0.012,0.041,0.025,0.043
,-0.05,0.32!,10,2
-0.034,0.625,0.010,0.017,0.011,0.040,0.025,0.044
,-0.05,0.33!,10,2
-0.034,0.625,0.010,0.017,0.011,0.038,0.025,0.045
,-0.05,0.32!,10,2
-0.034,0.625,0.009,0.017,0.012,0.037,0.024,0.044
,-0.06,0.32!,10,2
-0.034,0.625,0.009,0.017,0.012,0.036,0.025,0.045
,-0.06,0.30!,10,2
-0.034,0.625,0.009,0.016,0.012,0.036,0.024,0.045
,-0.07,0.28!,10,2
-0.034,0.625,0.009,0.016,0.012,0.037,0.024,0.044
,-0.07,0.27!,10,2
-0.034,0.625,0.009,0.018,0.012,0.039,0.026,0.044
,-0.07,0.26!,10,2
-0.034,0.625,0.009,0.018,0.013,0.039,0.025,0.044
,-0.07,0.28!,10,2
-0.034,0.625,0.009,0.018,0.012,0.038,0.024,0.045
,-0.09,0.30!,10,2
-0.034,0.625,0.009,0.018,0.012,0.038,0.025,0.045
,-0.09,0.31!,10,2
-0.034,0.625,0.010,0.017,0.012,0.038,0.026,0.045
,-0.09,0.29!,10,2
-0.034,0.625,0.010,0.017,0.012,0.038,0.027,0.045
,-0.08,0.29!,10,2
-0.034,0.625,0.011,0.016,0.011,0.038,0.027,0.046
,-0.07,0.29!,10,2
-0.034,0.625,0.010,0.017,0.011,0.038,0.026,0.046
,-0.06,0.29!,10,2
-0.034,0.625,0.010,0.017,0.011,0.037,0.026,0.046
,-0.05,0.29!,10,2
-0.034,0.625,0.011,0.017,0.011,0.036,0.025,0.046
,-0.05,0.28!,10,2
-0.034,0.625,0.010,0.015,0.011,0.035,0.023,0.046
,-0.05,0.27!,10,2
-0.034,0.625,0.011,0.015,0.011,0.035,0.023,0.046
,-0.03,0.26!,10,2
-0.034,0.625,0.012,0.016,0.011,0.036,0.024,0.045
,-0.01,0.25!,10,2
-0.034,0.625,0.012,0.016,0.010,0.036,0.024,0.045
,-0.01,0.25!,10,2
-0.034,0.625,0.012,0.016,0.011,0.035,0.023,0.044
,-0.02,0.26!,10,2
-0.034,0.625,0.011,0.016,0.011,0.035,0.023,0.044
,-0.02,0.26!,10,2
-0.034,0.625,0.011,0.016,0.011,0.036,0.023,0.045
,-0.03,0.25!,10,2
-0.034,0.625,0.011,0.016,0.011,0.036,0.024,0.044
,-0.03,0.25!,10,2
-0.034,0.625,0.011,0.016,0.012,0.036,0.025,0.044
,-0.04,0.26!,10,2
-0.034,0.625,0.011,0.016,0.012,0.036,0.025,0.045
,-0.04,0.26!,10,2
-0.034,0.625,0.012,0.017,0.012,0.038,0.025,0.046
,-0.04,0.26!,10,2
-0.034,0.625,0.011,0.017,0.011,0.039,0.025,0.045
,-0.04,0.27!,10,2
-0.034,0.625,0.010,0.016,0.011,0.039,0.025,0.045
,-0.05,0.29!,10,2
-0.034,0.625,0.010,0.016,0.012,0.039,0.025,0.045
,-0.05,0.30!,10,2
-0.034,0.625,0.010,0.016,0.011,0.040,0.024,0.047
,-0.04,0.30!,10,2
-0.034,0.625,0.010,0.016,0.011,0.040,0.024,0.046
,-0.04,0.31!,10,2
-0.034,0.625,0.009,0.015,0.012,0.039,0.024,0.045
,-0.04,0.32!,10,2
-0.034,0.625,0.008,0.015,0.012,0.040,0.024,0.044
,-0.04,0.32!,10,2
-0.033,0.625,0.009,0.014,0.011,0.040,0.023,0.046
,-0.05,0.30!,10,2
-0.033,0.625,0.009,0.014,0.011,0.041,0.022,0.045
,-0.06,0.30!,10,2
-0.034,0.625,0.009,0.013,0.011,0.038,0.022,0.044
,-0.17,0.31!,10,2
-0.033,0.625,0.010,0.013,0.011,0.038,0.022,0.043
,-0.22,0.30!,10,2
-0.033,0.625,0.010,0.013,0.010,0.039,0.023,0.045
,0.01,0.28!,10,2
-0.033,0.625,0.009,0.012,0.010,0.040,0.023,0.046
,0.16,0.28!,10,2
-0.033,0.625,0.010,0.014,0.010,0.041,0.023,0.044
,0.07,0.30!,10,2
-0.033,0.625,0.010,0.013,0.010,0.041,0.023,0.044
,-0.02,0.32!,10,2
-0.033,0.625,0.010,0.013,0.010,0.041,0.024,0.044
,-0.06,0.33!,10,2
-0.033,0.625,0.010,0.013,0.010,0.041,0.024,0.045
,-0.04,0.34!,10,2
-0.033,0.625,0.011,0.013,0.010,0.042,0.024,0.044
,-0.02,0.33!,10,2
-0.033,0.625,0.011,0.012,0.010,0.041,0.025,0.045
,-0.01,0.34!,10,2
-0.033,0.625,0.010,0.011,0.010,0.041,0.025,0.045
,-0.00,0.35!,10,2
-0.033,0.625,0.010,0.011,0.010,0.041,0.025,0.046
,0.01,0.34!,10,2
-0.033,0.625,0.010,0.011,0.009,0.041,0.025,0.044
,0.02,0.34!,10,2
-0.033,0.625,0.010,0.011,0.010,0.038,0.026,0.044
,0.02,0.33!,10,2
-0.033,0.625,0.010,0.010,0.010,0.039,0.027,0.045
,0.01,0.33!,10,2
-0.033,0.625,0.010,0.010,0.012,0.039,0.026,0.044
,0.02,0.32!,10,2
-0.033,0.625,0.010,0.011,0.011,0.038,0.025,0.045
,0.02,0.31!,10,2
-0.033,0.625,0.010,0.010,0.011,0.038,0.025,0.045
,0.02,0.30!,10,2
-0.033,0.625,0.010,0.010,0.011,0.037,0.026,0.045
,0.01,0.29!,10,2
-0.033,0.625,0.009,0.011,0.011,0.039,0.026,0.046
,0.01,0.28!,10,2
-0.034,0.625,0.010,0.011,0.011,0.039,0.027,0.046
,0.00,0.27!,10,2
-0.033,0.625,0.009,0.010,0.012,0.038,0.028,0.045
,-0.01,0.28!,10,2
-0.033,0.625,0.009,0.010,0.012,0.037,0.027,0.044
,-0.01,0.30!,10,2
-0.034,0.625,0.009,0.011,0.012,0.039,0.025,0.046
,-0.02,0.29!,10,2
-0.033,0.625,0.010,0.011,0.011,0.039,0.025,0.045
,-0.01,0.28!,10,2
-0.033,0.625,0.010,0.012,0.010,0.039,0.026,0.045
,0.10,0.28!,10,2
-0.034,0.625,0.010,0.012,0.011,0.040,0.027,0.044
,0.16,0.29!,10,2
-0.033,0.625,0.010,0.013,0.010,0.040,0.027,0.044
,0.06,0.31!,10,2
-0.033,0.625,0.011,0.012,0.011,0.040,0.026,0.044
,0.10,0.32!,10,2
-0.033,0.625,0.010,0.014,0.011,0.039,0.026,0.043
,0.15,0.32!,10,2
-0.033,0.625,0.009,0.014,0.012,0.039,0.024,0.044
,0.05,0.32!,10,2
-0.033,0.625,0.010,0.014,0.011,0.039,0.023,0.044
,-0.02,0.31!,10,2
-0.033,0.625,0.009,0.014,0.011,0.039,0.023,0.044
,-0.04,0.31!,10,2
-0.033,0.625,0.010,0.013,0.011,0.038,0.023,0.043
,-0.04,0.30!,10,2
-0.033,0.625,0.009,0.013,0.011,0.038,0.022,0.043
,-0.02,0.30!,10,2
-0.033,0.625,0.009,0.012,0.011,0.038,0.021,0.044
,-0.02,0.30!,10,2
-0.033,0.625,0.009,0.012,0.010,0.038,0.021,0.044
,-0.02,0.29!,10,2
-0.033,0.625,0.009,0.012,0.011,0.038,0.020,0.044
,-0.02,0.29!,10,2
-0.033,0.625,0.009,0.013,0.009,0.037,0.022,0.045
,-0.02,0.29!,10,2
-0.033,0.625,0.009,0.011,0.010,0.039,0.023,0.045
,-0.02,0.28!,10,2
-0.033,0.625,0.009,0.011,0.011,0.039,0.024,0.044
,-0.02,0.27!,10,2
-0.033,0.625,0.009,0.011,0.011,0.039,0.024,0.044
,-0.02,0.28!,10,2
-0.033,0.625,0.009,0.011,0.011,0.038,0.025,0.045
,-0.02,0.30!,10,2
-0.033,0.625,0.009,0.011,0.011,0.038,0.025,0.044
,-0.01,0.30!,10,2
-0.033,0.625,0.008,0.010,0.011,0.039,0.027,0.043
,-0.01,0.29!,10,2
-0.033,0.625,0.009,0.011,0.011,0.039,0.027,0.044
,-0.01,0.29!,10,2
-0.034,0.625,0.009,0.011,0.011,0.039,0.027,0.045
,0.00,0.30!,10,2
-0.033,0.625,0.009,0.010,0.010,0.038,0.028,0.045
,0.00,0.31!,10,2
-0.033,0.625,0.009,0.010,0.011,0.038,0.027,0.043
,-0.00,0.31!,10,2
-0.033,0.625,0.010,0.011,0.010,0.036,0.028,0.043
,-0.01,0.30!,10,2
-0.033,0.625,0.010,0.011,0.009,0.036,0.028,0.045
,0.00,0.29!,10,2
-0.033,0.625,0.010,0.011,0.010,0.036,0.029,0.045
,0.01,0.28!,10,2
-0.033,0.625,0.010,0.012,0.010,0.036,0.028,0.045
,0.02,0.27!,10,2
-0.033,0.625,0.010,0.011,0.011,0.036,0.029,0.046
,0.01,0.26!,10,2
-0.033,0.625,0.010,0.012,0.011,0.036,0.028,0.047
,-0.00,0.26!,10,2
-0.033,0.625,0.009,0.011,0.011,0.035,0.028,0.046
,-0.01,0.26!,10,2
-0.033,0.625,0.010,0.011,0.011,0.035,0.029,0.045
,-0.02,0.26!,10,2
-0.033,0.625,0.010,0.012,0.011,0.036,0.029,0.045
,-0.02,0.26!,10,2
-0.033,0.625,0.010,0.011,0.011,0.037,0.028,0.046
,-0.01,0.25!,10,2
-0.033,0.625,0.010,0.011,0.013,0.037,0.026,0.046
,0.00,0.26!,10,2
-0.034,0.625,0.010,0.011,0.012,0.038,0.026,0.046
,0.01,0.27!,10,2
-0.033,0.625,0.010,0.011,0.012,0.038,0.027,0.046
,0.01,0.29!,10,2
-0.033,0.625,0.010,0.011,0.013,0.038,0.028,0.046
,0.00,0.29!,10,2
-0.033,0.625,0.010,0.011,0.013,0.038,0.027,0.046
,-0.00,0.29!,10,2
-0.034,0.625,0.010,0.011,0.013,0.039,0.028,0.045
,-0.00,0.29!,10,2
-0.034,0.625,0.010,0.011,0.013,0.039,0.028,0.046
,-0.01,0.30!,10,2
-0.034,0.625,0.011,0.010,0.013,0.038,0.028,0.046
,-0.00,0.30!,10,2
-0.034,0.625,0.011,0.010,0.013,0.038,0.028,0.046
,0.00,0.30!,10,2
-0.034,0.625,0.012,0.010,0.013,0.037,0.029,0.047
,0.01,0.29!,10,2
-0.034,0.625,0.010,0.010,0.012,0.038,0.029,0.047
,0.02,0.28!,10,2
-0.034,0.625,0.011,0.010,0.012,0.038,0.029,0.046
,0.02,0.27!,10,2
-0.034,0.625,0.011,0.010,0.011,0.039,0.027,0.046
,0.00,0.27!,10,2
-0.034,0.625,0.011,0.010,0.012,0.039,0.027,0.045
,0.01,0.28!,10,2
-0.034,0.625,0.010,0.010,0.011,0.039,0.028,0.046
,0.02,0.29!,10,2
-0.034,0.625,0.010,0.010,0.012,0.039,0.028,0.046
,0.02,0.30!,10,2
-0.034,0.625,0.010,0.010,0.012,0.040,0.027,0.046
,0.01,0.30!,10,2
-0.034,0.625,0.009,0.010,0.011,0.041,0.026,0.046
,0.01,0.30!,10,2
-0.034,0.625,0.009,0.011,0.011,0.041,0.027,0.047
,0.01,0.31!,10,2
-0.034,0.625,0.008,0.010,0.011,0.041,0.026,0.047
,0.01,0.33!,10,2
-0.034,0.625,0.008,0.010,0.012,0.040,0.026,0.047
,0.00,0.34!,10,2
-0.034,0.625,0.008,0.010,0.012,0.040,0.027,0.048
,-0.00,0.33!,10,2
-0.034,0.625,0.008,0.010,0.012,0.039,0.027,0.047
,-0.01,0.33!,10,2
-0.034,0.625,0.008,0.012,0.011,0.041,0.027,0.048
,-0.02,0.32!,10,2
-0.034,0.625,0.008,0.011,0.011,0.040,0.026,0.048
,-0.03,0.32!,10,2
-0.034,0.625,0.008,0.011,0.012,0.039,0.026,0.048
,-0.04,0.34!,10,2
-0.034,0.625,0.008,0.011,0.013,0.039,0.025,0.047
,-0.04,0.33!,10,2
-0.034,0.625,0.008,0.012,0.013,0.040,0.026,0.046
,-0.04,0.31!,10,2
-0.033,0.625,0.008,0.012,0.013,0.039,0.026,0.045
,-0.04,0.31!,10,2
-0.033,0.625,0.008,0.012,0.014,0.040,0.027,0.045
,-0.04,0.32!,10,2
-0.033,0.625,0.009,0.011,0.014,0.040,0.027,0.044
,-0.05,0.32!,10,2
-0.033,0.625,0.009,0.011,0.014,0.039,0.027,0.044
,-0.04,0.32!,10,2
-0.033,0.625,0.010,0.011,0.014,0.039,0.026,0.044
,-0.03,0.32!,10,2
-0.033,0.625,0.009,0.011,0.014,0.038,0.026,0.043
,-0.01,0.30!,10,2
-0.033,0.625,0.010,0.011,0.014,0.038,0.027,0.042
,-0.00,0.29!,10,2
-0.033,0.625,0.010,0.011,0.012,0.037,0.027,0.041
,-0.00,0.28!,10,2
-0.033,0.625,0.010,0.011,0.012,0.038,0.027,0.042
,0.00,0.28!,10,2
-0.033,0.625,0.010,0.011,0.012,0.036,0.026,0.043
,0.00,0.27!,10,2
-0.033,0.625,0.010,0.018,0.012,0.036,0.027,0.042
,0.00,0.26!,10,2
-0.033,0.625,0.010,0.024,0.011,0.034,0.026,0.042
,0.00,0.25!,10,2
-0.033,0.625,0.009,0.028,0.012,0.034,0.026,0.045
,-0.05,0.24!,10,2
-0.033,0.625,0.010,0.031,0.012,0.035,0.025,0.044
,-0.14,0.21!,10,2
-0.033,0.625,0.009,0.034,0.012,0.034,0.025,0.044
,-0.21,0.21!,10,2
-0.033,0.625,0.009,0.037,0.012,0.033,0.025,0.044
,-0.26,0.23!,10,2
-0.033,0.625,0.010,0.039,0.012,0.034,0.024,0.044
,-0.29,0.22!,10,2
-0.033,0.625,0.010,0.042,0.012,0.034,0.024,0.044
,-0.31,0.20!,10,2
-0.033,0.625,0.010,0.044,0.013,0.034,0.024,0.044
,-0.32,0.20!,10,2
-0.033,0.625,0.009,0.047,0.013,0.034,0.024,0.044
,-0.34,0.21!,10,2
-0.033,0.625,0.010,0.046,0.013,0.035,0.023,0.043
,-0.38,0.21!,10,2
-0.033,0.625,0.011,0.045,0.013,0.037,0.024,0.043
,-0.41,0.22!,10,2
-0.033,0.625,0.010,0.045,0.013,0.036,0.024,0.042
,-0.40,0.23!,10,2
-0.033,0.625,0.010,0.045,0.014,0.037,0.024,0.043
,-0.39,0.25!,10,2
-0.033,0.625,0.010,0.046,0.014,0.037,0.025,0.043
,-0.38,0.26!,10,2
-0.033,0.625,0.012,0.047,0.014,0.039,0.025,0.044
,-0.39,0.26!,10,2
-0.033,0.625,0.010,0.047,0.014,0.040,0.025,0.044
,-0.40,0.27!,10,2
-0.033,0.625,0.011,0.046,0.015,0.040,0.025,0.044
,-0.41,0.28!,10,2
-0.033,0.625,0.012,0.046,0.013,0.041,0.025,0.045
,-0.42,0.29!,10,2
-0.033,0.625,0.012,0.047,0.014,0.041,0.025,0.045
,-0.40,0.29!,10,2
-0.033,0.625,0.011,0.047,0.014,0.040,0.026,0.045
,-0.37,0.30!,10,2
-0.033,0.625,0.011,0.048,0.014,0.041,0.024,0.046
,-0.38,0.30!,10,2
-0.033,0.625,0.011,0.047,0.013,0.041,0.024,0.045
,-0.40,0.31!,10,2
-0.033,0.625,0.011,0.048,0.013,0.041,0.024,0.045
,-0.41,0.31!,10,2
-0.033,0.625,0.011,0.046,0.013,0.041,0.023,0.045
,-0.41,0.31!,10,2
-0.033,0.625,0.010,0.046,0.014,0.039,0.023,0.045
,-0.40,0.31!,10,2
-0.033,0.625,0.011,0.046,0.013,0.038,0.022,0.045
,-0.40,0.29!,10,2
-0.033,0.625,0.010,0.046,0.013,0.039,0.022,0.045
,-0.38,0.28!,10,2
-0.034,0.625,0.010,0.046,0.013,0.037,0.023,0.046
,-0.37,0.27!,10,2
-0.033,0.625,0.010,0.045,0.012,0.038,0.024,0.045
,-0.38,0.28!,10,2
-0.034,0.625,0.010,0.045,0.012,0.038,0.023,0.045
,-0.14,0.28!,10,2
-0.034,0.625,0.010,0.044,0.013,0.036,0.024,0.045
,0.00,0.27!,10,2
-0.033,0.625,0.009,0.045,0.014,0.036,0.024,0.046
,-0.22,0.26!,10,2
-0.033,0.625,0.009,0.045,0.014,0.036,0.025,0.046
,-0.39,0.24!,10,2
-0.034,0.625,0.009,0.045,0.014,0.035,0.025,0.047
,-0.68,0.23!,10,2
-0.033,0.625,0.009,0.045,0.013,0.036,0.025,0.046
,-0.80,0.24!,10,2
-0.034,0.625,0.009,0.045,0.014,0.036,0.026,0.048
,-0.32,0.24!,10,2
-0.034,0.625,0.009,0.045,0.014,0.036,0.026,0.047
,-0.02,0.24!,10,2
-0.033,0.625,0.009,0.045,0.014,0.036,0.026,0.046
,-0.21,0.24!,10,2
-0.033,0.625,0.009,0.047,0.014,0.036,0.025,0.046
,-0.39,0.24!,10,2
-0.033,0.625,0.010,0.048,0.015,0.037,0.026,0.045
,-0.69,0.24!,10,2
-0.034,0.625,0.011,0.048,0.014,0.037,0.027,0.044
,-0.82,0.24!,10,2
-0.033,0.625,0.011,0.047,0.013,0.037,0.027,0.044
,-0.57,0.24!,10,2
-0.034,0.625,0.011,0.047,0.013,0.038,0.026,0.043
,-0.40,0.25!,10,2
-0.034,0.625,0.011,0.047,0.013,0.039,0.026,0.043
,-0.36,0.26!,10,2
-0.034,0.625,0.011,0.047,0.013,0.039,0.025,0.043
,-0.37,0.27!,10,2
-0.034,0.625,0.010,0.047,0.013,0.039,0.025,0.042
,-0.38,0.27!,10,2
-0.034,0.625,0.010,0.047,0.013,0.038,0.025,0.043
,-0.40,0.28!,10,2
-0.034,0.625,0.010,0.047,0.013,0.038,0.024,0.043
,-0.41,0.27!,10,2
-0.034,0.625,0.011,0.045,0.013,0.037,0.024,0.043
,-0.41,0.26!,10,2
-0.034,0.625,0.010,0.045,0.012,0.037,0.024,0.044
,-0.40,0.26!,10,2
-0.034,0.625,0.010,0.045,0.013,0.038,0.023,0.045
,-0.38,0.25!,10,2
-0.033,0.625,0.011,0.043,0.013,0.037,0.022,0.045
,-0.38,0.25!,10,2
-0.034,0.625,0.010,0.042,0.013,0.037,0.023,0.045
,-0.38,0.27!,10,2
-0.034,0.625,0.010,0.040,0.013,0.036,0.024,0.045
,-0.35,0.27!,10,2
-0.034,0.625,0.010,0.038,0.013,0.036,0.024,0.045
,-0.34,0.26!,10,2
-0.034,0.625,0.010,0.036,0.014,0.038,0.024,0.043
,-0.32,0.25!,10,2
-0.034,0.625,0.010,0.034,0.015,0.038,0.024,0.044
,-0.30,0.24!,10,2
-0.034,0.625,0.010,0.032,0.015,0.039,0.024,0.044
,-0.29,0.25!,10,2
-0.034,0.625,0.011,0.030,0.015,0.039,0.024,0.044
,-0.27,0.26!,10,2
-0.034,0.625,0.010,0.027,0.014,0.039,0.025,0.046
,-0.25,0.27!,10,2
-0.034,0.625,0.010,0.023,0.013,0.038,0.025,0.044
,-0.23,0.28!,10,2
-0.034,0.625,0.010,0.023,0.013,0.039,0.026,0.043
,-0.19,0.27!,10,2
-0.034,0.625,0.010,0.024,0.012,0.039,0.025,0.043
,-0.14,0.26!,10,2
-0.034,0.625,0.010,0.024,0.012,0.040,0.025,0.044
,-0.13,0.27!,10,2
-0.034,0.625,0.011,0.025,0.014,0.039,0.025,0.043
,-0.14,0.27!,10,2
-0.034,0.625,0.011,0.025,0.012,0.038,0.025,0.044
,-0.16,0.28!,10,2
-0.034,0.625,0.011,0.025,0.012,0.038,0.025,0.044
,-0.16,0.28!,10,2
-0.034,0.625,0.012,0.024,0.011,0.036,0.025,0.043
,-0.16,0.27!,10,2
-0.034,0.625,0.012,0.024,0.011,0.036,0.024,0.043
,-0.14,0.27!,10,2
-0.034,0.625,0.012,0.025,0.011,0.035,0.023,0.042
,-0.12,0.26!,10,2
-0.034,0.625,0.012,0.024,0.012,0.035,0.023,0.043
,-0.11,0.24!,10,2
-0.034,0.625,0.012,0.024,0.012,0.035,0.024,0.044
,-0.11,0.24!,10,2
-0.034,0.625,0.012,0.023,0.012,0.035,0.023,0.044
,-0.11,0.23!,10,2
-0.034,0.625,0.012,0.023,0.012,0.036,0.022,0.044
,-0.11,0.23!,10,2
-0.034,0.625,0.011,0.022,0.009,0.036,0.022,0.045
,-0.10,0.23!,10,2
-0.034,0.625,0.011,0.023,0.010,0.036,0.023,0.044
,-0.09,0.23!,10,2
-0.034,0.625,0.011,0.023,0.010,0.036,0.022,0.044
,-0.08,0.24!,10,2
-0.034,0.625,0.011,0.023,0.010,0.037,0.024,0.044
,-0.09,0.24!,10,2
-0.034,0.625,0.010,0.023,0.010,0.036,0.024,0.043
,-0.10,0.24!,10,2
-0.034,0.625,0.011,0.022,0.011,0.036,0.026,0.043
,-0.11,0.24!,10,2
-0.034,0.625,0.011,0.022,0.011,0.036,0.026,0.043
,-0.11,0.24!,10,2
-0.034,0.625,0.010,0.022,0.011,0.035,0.025,0.043
,-0.10,0.24!,10,2
-0.034,0.625,0.010,0.023,0.011,0.035,0.025,0.043
,-0.11,0.24!,10,2
-0.034,0.625,0.011,0.024,0.012,0.035,0.026,0.043
,-0.12,0.24!,10,2
-0.034,0.625,0.013,0.024,0.012,0.036,0.026,0.042
,-0.13,0.23!,10,2
-0.034,0.625,0.013,0.024,0.011,0.035,0.026,0.043
,-0.12,0.23!,10,2
-0.034,0.625,0.012,0.023,0.012,0.035,0.026,0.042
,-0.11,0.24!,10,2
-0.034,0.625,0.012,0.024,0.011,0.035,0.025,0.043
,-0.10,0.24!,10,2
-0.034,0.625,0.012,0.024,0.011,0.036,0.024,0.043
,-0.09,0.23!,10,2
-0.034,0.625,0.012,0.025,0.012,0.037,0.023,0.041
,-0.10,0.23!,10,2
-0.034,0.625,0.012,0.025,0.013,0.038,0.023,0.041
,-0.11,0.24!,10,2
-0.034,0.625,0.013,0.024,0.012,0.038,0.023,0.042
,-0.12,0.25!,10,2
-0.034,0.625,0.014,0.024,0.011,0.037,0.023,0.041
,-0.12,0.27!,10,2
-0.034,0.625,0.012,0.023,0.011,0.037,0.023,0.041
,-0.11,0.26!,10,2
-0.034,0.625,0.011,0.023,0.012,0.038,0.023,0.040
,-0.10,0.25!,10,2
-0.034,0.625,0.012,0.023,0.011,0.037,0.023,0.042
,-0.11,0.26!,10,2
-0.034,0.625,0.012,0.023,0.011,0.037,0.024,0.042
,-0.11,0.26!,10,2
-0.034,0.625,0.012,0.023,0.011,0.037,0.024,0.041
,-0.10,0.27!,10,2
-0.034,0.625,0.012,0.022,0.013,0.037,0.025,0.042
,-0.09,0.26!,10,2
-0.034,0.625,0.011,0.022,0.011,0.037,0.025,0.043
,-0.09,0.25!,10,2
-0.034,0.625,0.011,0.022,0.010,0.037,0.025,0.042
,-0.10,0.25!,10,2
-0.034,0.625,0.010,0.021,0.011,0.037,0.025,0.042
,-0.11,0.25!,10,2
-0.034,0.625,0.009,0.021,0.011,0.037,0.026,0.042
,-0.11,0.25!,10,2
-0.034,0.625,0.009,0.020,0.010,0.038,0.026,0.044
,-0.12,0.25!,10,2
-0.034,0.625,0.009,0.019,0.010,0.037,0.026,0.043
,-0.12,0.25!,10,2
-0.034,0.625,0.009,0.018,0.010,0.037,0.026,0.043
,-0.11,0.25!,10,2
-0.034,0.625,0.008,0.018,0.010,0.036,0.024,0.044
,-0.10,0.25!,10,2
-0.034,0.625,0.008,0.017,0.011,0.037,0.025,0.043
,-0.09,0.24!,10,2
-0.034,0.625,0.009,0.016,0.010,0.037,0.025,0.043
,-0.09,0.24!,10,2
-0.034,0.625,0.010,0.015,0.011,0.036,0.025,0.043
,-0.09,0.24!,10,2
-0.034,0.625,0.010,0.015,0.011,0.036,0.025,0.043
,-0.07,0.25!,10,2
-0.034,0.625,0.009,0.015,0.011,0.036,0.025,0.042
,-0.04,0.25!,10,2
-0.034,0.625,0.010,0.015,0.012,0.036,0.024,0.042
,-0.04,0.24!,10,2
-0.034,0.625,0.009,0.015,0.011,0.036,0.023,0.041
,-0.06,0.24!,10,2
-0.034,0.625,0.010,0.015,0.011,0.037,0.023,0.042
,-0.07,0.24!,10,2
-0.034,0.625,0.010,0.014,0.012,0.036,0.024,0.041
,-0.07,0.25!,10,2
-0.034,0.625,0.010,0.015,0.011,0.037,0.024,0.041
,-0.06,0.25!,10,2
-0.034,0.625,0.011,0.016,0.011,0.037,0.025,0.043
,-0.05,0.26!,10,2
-0.034,0.625,0.010,0.016,0.011,0.036,0.024,0.043
,-0.03,0.26!,10,2
-0.034,0.625,0.010,0.016,0.012,0.038,0.024,0.042
,-0.03,0.25!,10,2
-0.034,0.625,0.010,0.016,0.012,0.037,0.024,0.043
,-0.03,0.24!,10,2
-0.034,0.625,0.011,0.016,0.012,0.037,0.026,0.043
,-0.05,0.24!,10,2
-0.034,0.625,0.010,0.015,0.012,0.037,0.027,0.043
,-0.05,0.24!,10,2
-0.034,0.625,0.009,0.016,0.012,0.037,0.027,0.045
,-0.04,0.25!,10,2
-0.034,0.625,0.009,0.016,0.012,0.036,0.028,0.044
,-0.04,0.25!,10,2
-0.034,0.625,0.009,0.016,0.012,0.036,0.027,0.045
,-0.06,0.25!,10,2
-0.034,0.625,0.009,0.014,0.012,0.036,0.027,0.045
,-0.07,0.24!,10,2
-0.034,0.625,0.009,0.013,0.012,0.036,0.026,0.045
,-0.07,0.24!,10,2
-0.034,0.625,0.009,0.013,0.010,0.035,0.026,0.046
,-0.05,0.24!,10,2
-0.034,0.625,0.009,0.013,0.009,0.035,0.027,0.047
,-0.04,0.23!,10,2
-0.034,0.625,0.009,0.015,0.009,0.036,0.028,0.048
,-0.03,0.23!,10,2
-0.034,0.625,0.009,0.014,0.010,0.036,0.026,0.048
,-0.04,0.23!,10,2
-0.034,0.625,0.009,0.014,0.010,0.037,0.026,0.047
,-0.05,0.24!,10,2
-0.034,0.625,0.009,0.014,0.011,0.038,0.026,0.046
,-0.05,0.25!,10,2
-0.034,0.625,0.009,0.014,0.010,0.037,0.025,0.047
,-0.05,0.26!,10,2
-0.034,0.625,0.009,0.014,0.011,0.037,0.026,0.047
,-0.04,0.26!,10,2
-0.034,0.625,0.010,0.015,0.011,0.037,0.026,0.046
,-0.04,0.25!,10,2
-0.034,0.625,0.009,0.015,0.011,0.037,0.026,0.045
,-0.05,0.25!,10,2
-0.034,0.625,0.009,0.015,0.013,0.038,0.026,0.045
,-0.06,0.25!,10,2
-0.034,0.625,0.010,0.015,0.012,0.038,0.024,0.045
,-0.07,0.26!,10,2
-0.034,0.625,0.010,0.014,0.013,0.038,0.024,0.043
,-0.07,0.27!,10,2
-0.034,0.625,0.010,0.015,0.012,0.037,0.025,0.044
,-0.05,0.27!,10,2
-0.034,0.625,0.010,0.016,0.013,0.037,0.025,0.046
,-0.03,0.27!,10,2
-0.034,0.625,0.010,0.015,0.013,0.035,0.027,0.045
,-0.04,0.26!,10,2
-0.034,0.625,0.010,0.015,0.013,0.036,0.027,0.043
,-0.06,0.26!,10,2
-0.034,0.625,0.010,0.015,0.012,0.037,0.026,0.044
,-0.06,0.25!,10,2
-0.034,0.625,0.009,0.014,0.012,0.037,0.028,0.044
,-0.05,0.25!,10,2
-0.034,0.625,0.011,0.014,0.012,0.036,0.028,0.046
,-0.04,0.25!,10,2
-0.034,0.625,0.011,0.015,0.011,0.036,0.029,0.045
,-0.02,0.25!,10,2
-0.034,0.625,0.011,0.015,0.011,0.037,0.029,0.045
,-0.01,0.25!,10,2
-0.034,0.625,0.011,0.015,0.011,0.036,0.028,0.046
,-0.01,0.24!,10,2
-0.034,0.625,0.012,0.014,0.011,0.036,0.028,0.045
,-0.02,0.24!,10,2
-0.034,0.625,0.011,0.014,0.009,0.036,0.027,0.045
,-0.02,0.24!,10,2
-0.034,0.625,0.012,0.014,0.009,0.036,0.026,0.046
,0.00,0.24!,10,2
-0.034,0.625,0.012,0.015,0.009,0.035,0.026,0.046
,0.02,0.24!,10,2
-0.034,0.625,0.012,0.016,0.009,0.035,0.027,0.044
,0.02,0.23!,10,2
-0.034,0.625,0.011,0.016,0.011,0.035,0.024,0.045
,0.01,0.23!,10,2
-0.034,0.625,0.010,0.016,0.011,0.035,0.024,0.044
,-0.01,0.22!,10,2
-0.034,0.625,0.010,0.016,0.010,0.034,0.024,0.045
,-0.03,0.23!,10,2
-0.034,0.625,0.010,0.016,0.010,0.036,0.024,0.044
,-0.05,0.22!,10,2
-0.034,0.625,0.010,0.017,0.010,0.037,0.024,0.044
,-0.05,0.21!,10,2
-0.034,0.625,0.010,0.018,0.010,0.037,0.023,0.044
,-0.06,0.22!,10,2
-0.034,0.625,0.010,0.018,0.011,0.037,0.023,0.044
,-0.06,0.25!,10,2
-0.034,0.625,0.009,0.018,0.012,0.038,0.023,0.044
,-0.07,0.26!,10,2
-0.034,0.625,0.010,0.018,0.012,0.039,0.025,0.044
,-0.08,0.26!,10,2
-0.034,0.625,0.011,0.018,0.012,0.039,0.025,0.046
,-0.10,0.26!,10,2
-0.034,0.625,0.010,0.018,0.012,0.041,0.025,0.045
,-0.09,0.28!,10,2
-0.034,0.625,0.010,0.018,0.012,0.041,0.025,0.044
,-0.07,0.29!,10,2
-0.034,0.625,0.010,0.018,0.012,0.042,0.026,0.044
,-0.06,0.31!,10,2
-0.034,0.625,0.010,0.018,0.012,0.040,0.026,0.046
,-0.07,0.32!,10,2
-0.034,0.625,0.010,0.017,0.011,0.039,0.027,0.045
,-0.08,0.32!,10,2
-0.034,0.625,0.011,0.016,0.012,0.038,0.027,0.045
,-0.07,0.31!,10,2
-0.034,0.625,0.011,0.017,0.011,0.037,0.027,0.044
,-0.06,0.28!,10,2
-0.034,0.625,0.012,0.017,0.011,0.037,0.026,0.045
,-0.04,0.26!,10,2
-0.034,0.625,0.012,0.017,0.011,0.036,0.025,0.045
,-0.03,0.25!,10,2
-0.034,0.625,0.010,0.017,0.011,0.036,0.025,0.043
,-0.03,0.24!,10,2
-0.034,0.625,0.011,0.017,0.010,0.034,0.027,0.046
,-0.04,0.24!,10,2
-0.034,0.625,0.011,0.017,0.011,0.034,0.027,0.045
,-0.06,0.22!,10,2
-0.034,0.625,0.011,0.016,0.011,0.033,0.025,0.044
,-0.06,0.21!,10,2
-0.034,0.625,0.011,0.018,0.011,0.033,0.025,0.043
,-0.05,0.20!,10,2
-0.034,0.625,0.012,0.019,0.011,0.034,0.025,0.043
,-0.03,0.20!,10,2
-0.034,0.625,0.011,0.018,0.011,0.035,0.025,0.043
,-0.04,0.20!,10,2
-0.034,0.625,0.010,0.018,0.012,0.035,0.026,0.044
,-0.07,0.21!,10,2
-0.034,0.625,0.010,0.018,0.010,0.036,0.026,0.043
,-0.08,0.22!,10,2
-0.034,0.625,0.010,0.017,0.011,0.036,0.025,0.043
,-0.08,0.23!,10,2
-0.034,0.625,0.011,0.017,0.011,0.036,0.024,0.043
,-0.07,0.23!,10,2
-0.034,0.625,0.010,0.018,0.011,0.038,0.022,0.041
,-0.06,0.24!,10,2
-0.034,0.625,0.010,0.017,0.009,0.037,0.022,0.043
,-0.05,0.25!,10,2
-0.034,0.625,0.010,0.017,0.009,0.037,0.022,0.042
,-0.06,0.27!,10,2
-0.034,0.625,0.010,0.016,0.009,0.037,0.024,0.041
,-0.07,0.27!,10,2
-0.034,0.625,0.011,0.015,0.010,0.037,0.024,0.043
,-0.06,0.26!,10,2
-0.034,0.625,0.011,0.016,0.010,0.038,0.023,0.043
,-0.05,0.25!,10,2
-0.034,0.625,0.011,0.016,0.009,0.038,0.023,0.042
,-0.03,0.25!,10,2
-0.034,0.625,0.011,0.016,0.009,0.037,0.025,0.043
,-0.02,0.26!,10,2
-0.034,0.625,0.011,0.016,0.008,0.037,0.026,0.044
,-0.02,0.26!,10,2
-0.034,0.625,0.011,0.016,0.008,0.036,0.027,0.045
,-0.02,0.26!,10,2
-0.034,0.625,0.011,0.016,0.010,0.035,0.028,0.044
,-0.02,0.26!,10,2
-0.034,0.625,0.011,0.016,0.011,0.036,0.028,0.043
,-0.03,0.24!,10,2
-0.034,0.625,0.012,0.017,0.011,0.036,0.028,0.044
,-0.03,0.23!,10,2
-0.034,0.625,0.012,0.016,0.011,0.037,0.027,0.045
,-0.04,0.23!,10,2
-0.034,0.625,0.011,0.017,0.010,0.036,0.027,0.043
,-0.04,0.23!,10,2
-0.034,0.625,0.011,0.017,0.011,0.035,0.027,0.043
,-0.04,0.24!,10,2
-0.034,0.625,0.011,0.016,0.011,0.035,0.027,0.043
,-0.04,0.23!,10,2
-0.034,0.625,0.011,0.015,0.010,0.036,0.026,0.043
,-0.04,0.23!,10,2
-0.034,0.625,0.011,0.016,0.011,0.035,0.026,0.042
,-0.03,0.23!,10,2
-0.034,0.625,0.011,0.016,0.011,0.035,0.025,0.042
,-0.03,0.22!,10,2
-0.034,0.625,0.011,0.016,0.010,0.036,0.024,0.042
,-0.04,0.22!,10,2
-0.034,0.625,0.011,0.015,0.010,0.036,0.024,0.045
,-0.04,0.23!,10,2
-0.034,0.625,0.011,0.014,0.010,0.036,0.024,0.044
,-0.03,0.24!,10,2
-0.034,0.625,0.012,0.013,0.010,0.036,0.025,0.046
,-0.02,0.24!,10,2
-0.034,0.625,0.012,0.013,0.010,0.036,0.026,0.047
,-0.00,0.24!,10,2
-0.034,0.625,0.012,0.012,0.010,0.036,0.025,0.046
,0.02,0.24!,10,2
-0.034,0.625,0.012,0.012,0.010,0.037,0.024,0.047
,0.02,0.24!,10,2
-0.034,0.625,0.012,0.013,0.010,0.036,0.025,0.047
,0.03,0.24!,10,2
-0.034,0.625,0.011,0.012,0.010,0.036,0.024,0.046
,0.03,0.25!,10,2
-0.034,0.625,0.011,0.011,0.012,0.037,0.024,0.046
,0.03,0.25!,10,2
-0.034,0.625,0.012,0.011,0.013,0.036,0.024,0.046
,0.03,0.24!,10,2
-0.034,0.625,0.012,0.012,0.013,0.036,0.023,0.044
,0.02,0.24!,10,2
-0.034,0.625,0.012,0.012,0.013,0.036,0.024,0.044
,0.02,0.23!,10,2
-0.034,0.625,0.011,0.012,0.013,0.035,0.023,0.043
,0.02,0.23!,10,2
-0.034,0.625,0.010,0.012,0.013,0.035,0.022,0.042
,0.01,0.24!,10,2
-0.034,0.625,0.011,0.011,0.013,0.036,0.024,0.044
,0.00,0.23!,10,2
-0.034,0.625,0.011,0.011,0.013,0.035,0.024,0.043
,-0.00,0.23!,10,2
-0.034,0.625,0.011,0.012,0.013,0.035,0.023,0.043
,0.01,0.22!,10,2
-0.034,0.625,0.012,0.012,0.013,0.035,0.023,0.043
,0.01,0.22!,10,2
-0.034,0.625,0.012,0.012,0.011,0.035,0.022,0.043
,0.01,0.22!,10,2
-0.034,0.625,0.012,0.012,0.011,0.035,0.022,0.043
,0.01,0.22!,10,2
-0.034,0.625,0.012,0.012,0.011,0.036,0.023,0.043
,0.02,0.23!,10,2
-0.034,0.625,0.013,0.012,0.011,0.036,0.023,0.043
,0.02,0.23!,10,2
-0.034,0.625,0.013,0.012,0.011,0.036,0.024,0.043
,0.03,0.23!,10,2
-0.034,0.625,0.013,0.013,0.012,0.038,0.025,0.045
,0.03,0.24!,10,2
-0.034,0.625,0.012,0.013,0.011,0.037,0.024,0.043
,0.03,0.25!,10,2
-0.034,0.625,0.012,0.014,0.011,0.037,0.025,0.044
,0.02,0.27!,10,2
-0.034,0.625,0.012,0.012,0.011,0.038,0.025,0.043
,0.00,0.27!,10,2
-0.034,0.625,0.013,0.012,0.012,0.038,0.025,0.044
,-0.00,0.26!,10,2
-0.034,0.625,0.014,0.013,0.012,0.038,0.025,0.045
,0.00,0.25!,10,2
-0.034,0.625,0.013,0.012,0.011,0.038,0.026,0.045
,0.03,0.26!,10,2
-0.034,0.625,0.013,0.012,0.011,0.038,0.026,0.045
,0.06,0.26!,10,2
-0.034,0.625,0.012,0.012,0.011,0.037,0.025,0.045
,0.06,0.26!,10,2
-0.034,0.625,0.012,0.012,0.011,0.037,0.024,0.045
,0.05,0.26!,10,2
-0.034,0.625,0.012,0.012,0.012,0.035,0.024,0.043
,0.04,0.25!,10,2
-0.034,0.625,0.012,0.012,0.013,0.036,0.023,0.043
,0.03,0.24!,10,2
-0.034,0.625,0.012,0.012,0.012,0.036,0.023,0.042
,0.02,0.22!,10,2
-0.034,0.625,0.013,0.013,0.012,0.037,0.023,0.043
,0.02,0.22!,10,2
-0.034,0.625,0.012,0.012,0.011,0.037,0.023,0.043
,0.03,0.23!,10,2
-0.034,0.625,0.010,0.011,0.012,0.037,0.024,0.043
,0.04,0.24!,10,2
-0.034,0.625,0.010,0.011,0.011,0.037,0.024,0.042
,0.03,0.25!,10,2
-0.034,0.625,0.010,0.011,0.011,0.037,0.025,0.044
,0.00,0.25!,10,2
-0.034,0.625,0.010,0.012,0.011,0.037,0.027,0.043
,-0.00,0.25!,10,2
-0.034,0.625,0.010,0.013,0.012,0.038,0.026,0.041
,-0.01,0.25!,10,2
-0.034,0.625,0.010,0.013,0.011,0.039,0.026,0.043
,-0.01,0.25!,10,2
-0.034,0.625,0.010,0.013,0.010,0.039,0.026,0.043
,-0.01,0.26!,10,2
-0.034,0.625,0.010,0.012,0.011,0.037,0.026,0.043
,-0.02,0.27!,10,2
-0.034,0.625,0.011,0.012,0.011,0.037,0.026,0.043
,-0.01,0.27!,10,2
-0.034,0.625,0.011,0.013,0.011,0.036,0.026,0.044
,-0.00,0.25!,10,2
-0.034,0.625,0.011,0.014,0.011,0.037,0.027,0.043
,0.01,0.24!,10,2
-0.034,0.625,0.011,0.015,0.012,0.036,0.027,0.044
,0.00,0.23!,10,2
-0.034,0.625,0.011,0.016,0.012,0.037,0.025,0.043
,-0.01,0.23!,10,2
-0.034,0.625,0.011,0.015,0.011,0.037,0.024,0.044
,-0.03,0.23!,10,2
-0.034,0.625,0.011,0.015,0.012,0.036,0.023,0.046
,-0.03,0.24!,10,2
-0.034,0.625,0.012,0.016,0.012,0.036,0.023,0.046
,-0.02,0.25!,10,2
-0.034,0.625,0.011,0.017,0.012,0.035,0.024,0.046
,-0.03,0.25!,10,2
-0.034,0.625,0.011,0.018,0.012,0.036,0.025,0.047
,-0.04,0.24!,10,2
-0.034,0.625,0.009,0.018,0.013,0.037,0.337,0.047
,-0.06,0.24!,10,2
-0.034,0.625,0.009,0.018,0.013,0.037,0.584,0.046
,-0.08,0.24!,10,2
-0.034,0.625,0.009,0.018,0.013,0.036,0.584,0.046
,-0.11,0.24!,10,2
-0.034,0.625,0.009,0.018,0.013,0.037,0.647,0.046
,-0.11,0.25!,10,2
-0.034,0.625,0.009,0.019,0.013,0.037,0.647,0.046
,-0.10,0.25!,10,2
-0.034,0.625,0.009,0.020,0.014,0.038,0.647,0.046
,-0.10,0.26!,10,2
-0.034,0.625,0.009,0.020,0.015,0.039,0.703,0.045
,-0.11,0.26!,10,2
-0.034,0.625,0.008,0.019,0.016,0.038,0.932,0.043
,-0.13,0.27!,10,2
-0.034,0.625,0.008,0.019,0.016,0.038,1.114,0.045
,-0.13,0.27!,10,2
-0.034,0.625,0.009,0.019,0.015,0.038,1.274,0.043
,-0.13,0.26!,10,2
-0.034,0.625,0.008,0.018,0.015,0.037,1.373,0.044
,-0.13,0.26!,10,2
-0.034,0.625,0.008,0.019,0.016,0.036,1.425,0.043
,-0.14,0.26!,10,2
-0.034,0.625,0.008,0.019,0.017,0.038,1.552,0.043
,-0.14,0.25!,10,2
-0.034,0.625,0.008,0.019,0.017,0.038,1.645,0.042
,-0.15,0.24!,10,2
-0.034,0.625,0.009,0.017,0.017,0.040,1.756,0.042
,-0.15,0.24!,10,2
-0.034,0.625,0.010,0.017,0.017,0.039,1.860,0.042
,-0.14,0.26!,10,2
-0.034,0.625,0.011,0.018,0.016,0.038,1.939,0.044
,-0.12,0.27!,10,2
-0.034,0.625,0.011,0.018,0.015,0.040,1.939,0.044
,-0.09,0.27!,10,2
-0.034,0.625,0.011,0.019,0.016,0.040,1.940,0.042
,-0.07,0.28!,10,2
-0.034,0.625,0.011,0.019,0.017,0.040,1.938,0.043
,-0.07,0.29!,10,2
-0.034,0.625,0.011,0.018,0.017,0.040,1.939,0.042
,-0.08,0.30!,10,2
-0.034,0.625,0.011,0.018,0.016,0.041,1.938,0.043
,-0.09,0.29!,10,2
-0.034,0.625,0.011,0.018,0.015,0.039,1.937,0.043
,-0.09,0.29!,10,2
-0.034,0.625,0.011,0.019,0.015,0.039,1.938,0.043
,-0.08,0.30!,10,2
-0.034,0.625,0.012,0.020,0.015,0.038,1.937,0.043
,-0.08,0.30!,10,2
-0.034,0.625,0.010,0.019,0.015,0.038,1.937,0.044
,-0.08,0.28!,10,2
-0.034,0.625,0.010,0.018,0.015,0.038,1.938,0.043
,-0.07,0.27!,10,2
-0.034,0.625,0.010,0.018,0.015,0.037,1.936,0.042
,-0.07,0.26!,10,2
-0.034,0.625,0.010,0.019,0.014,0.038,1.938,0.041
,-0.09,0.26!,10,2
-0.034,0.625,0.009,0.019,0.013,0.039,1.938,0.042
,-0.09,0.25!,10,2
-0.034,0.625,0.010,0.019,0.014,0.040,1.937,0.044
,-0.09,0.26!,10,2
-0.034,0.625,0.009,0.019,0.014,0.041,1.939,0.042
,-0.09,0.27!,10,2
-0.034,0.625,0.010,0.019,0.015,0.041,1.938,0.043
,-0.09,0.29!,10,2
-0.034,0.625,0.010,0.018,0.014,0.042,1.937,0.044
,-0.09,0.30!,10,2
-0.034,0.625,0.008,0.017,0.014,0.041,1.939,0.044
,-0.09,0.31!,10,2
-0.034,0.625,0.009,0.019,0.014,0.041,1.938,0.042
,-0.10,0.32!,10,2
-0.034,0.625,0.009,0.019,0.014,0.040,1.937,0.044
,-0.13,0.31!,10,2
-0.034,0.625,0.009,0.019,0.014,0.040,1.938,0.044
,-0.14,0.31!,10,2
-0.034,0.625,0.009,0.019,0.014,0.040,1.936,0.045
,-0.13,0.30!,10,2
-0.034,0.625,0.010,0.019,0.015,0.039,1.936,0.047
,-0.12,0.29!,10,2
-0.034,0.625,0.009,0.019,0.015,0.038,1.937,0.046
,-0.12,0.28!,10,2
-0.034,0.625,0.009,0.019,0.015,0.038,1.935,0.046
,-0.12,0.27!,10,2
-0.034,0.625,0.009,0.019,0.014,0.039,1.937,0.045
,-0.13,0.27!,10,2
-0.034,0.625,0.009,0.019,0.014,0.038,1.936,0.045
,-0.12,0.26!,10,2
-0.034,0.625,0.009,0.019,0.016,0.038,1.935,0.045
,-0.12,0.26!,10,2
-0.034,0.625,0.009,0.017,0.016,0.038,1.937,0.046
,-0.12,0.26!,10,2
-0.034,0.625,0.010,0.016,0.016,0.039,1.936,0.046
,-0.11,0.26!,10,2
-0.034,0.625,0.010,0.016,0.015,0.038,1.936,0.045
,-0.09,0.26!,10,2
-0.034,0.625,0.010,0.016,0.015,0.038,1.937,0.046
,-0.07,0.26!,10,2
-0.034,0.625,0.010,0.015,0.016,0.038,1.936,0.044
,-0.06,0.26!,10,2
-0.034,0.625,0.010,0.014,0.015,0.038,1.937,0.044
,-0.06,0.26!,10,2
-0.034,0.625,0.010,0.013,0.015,0.037,1.937,0.045
,-0.06,0.26!,10,2
-0.034,0.625,0.010,0.012,0.014,0.036,1.936,0.044
,-0.05,0.26!,10,2
-0.034,0.625,0.010,0.012,0.014,0.036,1.939,0.044
,-0.04,0.25!,10,2
-0.034,0.625,0.011,0.011,0.012,0.036,1.938,0.044
,-0.03,0.24!,10,2
-0.034,0.625,0.010,0.011,0.011,0.036,1.938,0.044
,-0.01,0.24!,10,2
-0.034,0.625,0.010,0.011,0.011,0.035,1.939,0.045
,0.01,0.24!,10,2
-0.034,0.625,0.010,0.012,0.010,0.036,1.938,0.046
,0.02,0.24!,10,2
-0.034,0.625,0.010,0.010,0.011,0.035,1.938,0.045
,0.01,0.24!,10,2
-0.034,0.625,0.010,0.010,0.010,0.034,1.939,0.046
,-0.00,0.24!,10,2
-0.034,0.625,0.010,0.011,0.010,0.035,1.937,0.044
,0.00,0.23!,10,2
-0.034,0.625,0.010,0.012,0.010,0.036,1.938,0.045
,0.02,0.21!,10,2
-0.034,0.625,0.010,0.012,0.011,0.036,1.938,0.045
,0.01,0.22!,10,2
-0.034,0.625,0.010,0.012,0.011,0.036,1.936,0.045
,0.00,0.23!,10,2
-0.034,0.625,0.010,0.012,0.011,0.036,1.937,0.046
,-0.01,0.24!,10,2
-0.034,0.625,0.010,0.012,0.011,0.036,1.936,0.045
,-0.01,0.24!,10,2
-0.034,0.625,0.009,0.012,0.011,0.037,1.935,0.043
,-0.01,0.24!,10,2
-0.034,0.625,0.009,0.011,0.011,0.037,1.937,0.045
,-0.01,0.24!,10,2
-0.034,0.625,0.011,0.012,0.011,0.037,1.935,0.045
,-0.02,0.24!,10,2
-0.034,0.625,0.010,0.011,0.011,0.037,1.935,0.043
,-0.00,0.25!,10,2
-0.034,0.625,0.010,0.011,0.012,0.037,1.937,0.045
,0.03,0.25!,10,2
-0.034,0.625,0.010,0.011,0.012,0.037,1.935,0.045
,0.03,0.25!,10,2
-0.034,0.625,0.010,0.011,0.012,0.037,1.937,0.045
,0.01,0.25!,10,2
-0.034,0.625,0.010,0.011,0.012,0.037,1.937,0.045
,0.00,0.25!,10,2
-0.034,0.625,0.009,0.010,0.013,0.037,1.936,0.043
,-0.00,0.25!,10,2
-0.034,0.625,0.009,0.010,0.012,0.039,1.938,0.046
,-0.01,0.25!,10,2
-0.034,0.625,0.009,0.011,0.013,0.039,1.937,0.046
,-0.01,0.26!,10,2
-0.034,0.625,0.009,0.011,0.013,0.039,1.937,0.044
,-0.01,0.28!,10,2
-0.034,0.625,0.009,0.011,0.013,0.038,1.939,0.044
,-0.01,0.28!,10,2
-0.034,0.625,0.010,0.011,0.012,0.038,1.938,0.045
,-0.02,0.28!,10,2
-0.034,0.625,0.010,0.010,0.011,0.038,1.938,0.045
,-0.02,0.27!,10,2
-0.034,0.625,0.010,0.010,0.010,0.040,1.938,0.045
,-0.01,0.27!,10,2
-0.034,0.625,0.010,0.011,0.010,0.040,1.936,0.046
,0.00,0.27!,10,2
-0.034,0.625,0.010,0.011,0.011,0.041,1.937,0.045
,0.02,0.29!,10,2
-0.034,0.625,0.011,0.011,0.011,0.040,1.937,0.045
,0.02,0.30!,10,2
-0.034,0.625,0.011,0.011,0.011,0.039,1.935,0.044
,0.02,0.31!,10,2
-0.034,0.625,0.011,0.012,0.009,0.038,1.936,0.045
,0.02,0.30!,10,2
-0.034,0.625,0.011,0.012,0.009,0.038,1.935,0.045
,0.02,0.28!,10,2
-0.034,0.625,0.009,0.011,0.010,0.038,1.935,0.045
,0.02,0.27!,10,2
-0.034,0.625,0.009,0.012,0.011,0.039,1.936,0.045
,0.00,0.26!,10,2
-0.034,0.625,0.010,0.012,0.011,0.040,1.935,0.046
,-0.02,0.27!,10,2
-0.034,0.625,0.009,0.012,0.011,0.040,1.936,0.045
,-0.03,0.28!,10,2
-0.034,0.625,0.010,0.012,0.011,0.039,1.937,0.045
,-0.01,0.28!,10,2
-0.034,0.625,0.010,0.012,0.011,0.038,1.935,0.047
,-0.00,0.29!,10,2
-0.034,0.625,0.010,0.013,0.011,0.038,1.936,0.047
,0.00,0.28!,10,2
-0.034,0.625,0.009,0.013,0.011,0.039,1.936,0.045
,-0.00,0.26!,10,2
-0.034,0.625,0.009,0.012,0.012,0.041,1.935,0.045
,-0.01,0.26!,10,2
-0.034,0.625,0.010,0.015,0.012,0.041,1.937,0.045
,-0.02,0.27!,10,2
-0.034,0.625,0.010,0.017,0.011,0.041,1.936,0.046
,-0.05,0.29!,10,2
-0.034,0.625,0.009,0.019,0.011,0.040,1.936,0.046
,-0.06,0.30!,10,2
-0.034,0.625,0.009,0.021,0.012,0.038,1.938,0.043
,-0.07,0.30!,10,2
-0.034,0.625,0.009,0.023,0.012,0.038,1.936,0.044
,-0.09,0.29!,10,2
-0.034,0.625,0.008,0.025,0.012,0.038,1.937,0.043
,-0.12,0.28!,10,2
-0.034,0.625,0.009,0.026,0.012,0.039,1.937,0.042
,-0.16,0.27!,10,2
-0.034,0.625,0.008,0.027,0.013,0.039,1.936,0.043
,-0.19,0.27!,10,2
-0.034,0.625,0.008,0.029,0.013,0.038,1.937,0.044
,-0.21,0.28!,10,2
-0.034,0.625,0.008,0.030,0.012,0.037,1.937,0.044
,-0.23,0.27!,10,2
-0.034,0.625,0.009,0.029,0.013,0.037,1.935,0.046
,-0.25,0.26!,10,2
-0.034,0.625,0.010,0.029,0.013,0.037,1.937,0.044
,-0.25,0.26!,10,2
-0.034,0.625,0.010,0.029,0.012,0.037,1.935,0.044
,-0.23,0.25!,10,2
-0.034,0.625,0.010,0.029,0.012,0.037,1.935,0.045
,-0.20,0.25!,10,2
-0.034,0.625,0.010,0.029,0.012,0.037,1.936,0.046
,-0.19,0.25!,10,2
-0.034,0.625,0.011,0.028,0.012,0.037,1.935,0.046
,-0.20,0.25!,10,2
-0.034,0.625,0.010,0.028,0.014,0.036,1.935,0.046
,-0.19,0.25!,10,2
-0.034,0.625,0.010,0.028,0.014,0.038,1.936,0.046
,-0.18,0.24!,10,2
-0.034,0.625,0.010,0.029,0.014,0.036,1.934,0.047
,-0.19,0.24!,10,2
-0.034,0.625,0.012,0.029,0.013,0.036,1.936,0.046
,-0.20,0.23!,10,2
-0.034,0.625,0.011,0.029,0.013,0.036,1.936,0.045
,-0.20,0.23!,10,2
-0.034,0.625,0.010,0.029,0.013,0.036,1.934,0.044
,-0.18,0.23!,10,2
-0.034,0.625,0.010,0.028,0.013,0.036,1.936,0.045
,-0.18,0.24!,10,2
-0.034,0.625,0.010,0.030,0.013,0.036,1.935,0.045
,-0.19,0.24!,10,2
-0.034,0.625,0.010,0.029,0.013,0.035,1.934,0.045
,-0.20,0.24!,10,2
-0.034,0.625,0.010,0.030,0.014,0.034,1.936,0.045
,-0.20,0.23!,10,2
-0.034,0.625,0.010,0.030,0.011,0.034,1.934,0.044
,-0.20,0.22!,10,2
-0.034,0.625,0.010,0.030,0.011,0.032,1.935,0.045
,-0.20,0.22!,10,2
-0.034,0.625,0.010,0.030,0.012,0.033,1.935,0.045
,-0.20,0.21!,10,2
-0.034,0.625,0.009,0.030,0.012,0.033,1.933,0.045
,-0.21,0.21!,10,2
-0.034,0.625,0.009,0.030,0.012,0.033,1.935,0.044
,-0.22,0.21!,10,2
-0.034,0.625,0.008,0.030,0.013,0.033,1.935,0.045
,-0.23,0.20!,10,2
-0.034,0.625,0.008,0.031,0.013,0.034,1.933,0.044
,-0.24,0.20!,10,2
-0.034,0.625,0.008,0.029,0.012,0.035,1.935,0.044
,-0.26,0.20!,10,2
-0.034,0.625,0.009,0.029,0.013,0.035,1.934,0.045
,-0.27,0.21!,10,2
-0.034,0.625,0.009,0.028,0.012,0.035,1.934,0.044
,-0.26,0.22!,10,2
-0.034,0.625,0.010,0.028,0.014,0.035,1.935,0.044
,-0.24,0.22!,10,2
-0.034,0.625,0.010,0.029,0.014,0.036,1.933,0.045
,-0.22,0.23!,10,2
-0.034,0.625,0.011,0.028,0.013,0.036,1.935,0.044
,-0.21,0.23!,10,2
-0.034,0.625,0.010,0.028,0.013,0.037,1.936,0.045
,-0.20,0.23!,10,2
-0.034,0.625,0.010,0.028,0.013,0.038,1.935,0.046
,-0.19,0.24!,10,2
-0.034,0.625,0.011,0.028,0.013,0.038,1.936,0.047
,-0.19,0.25!,10,2
-0.034,0.625,0.010,0.028,0.013,0.037,1.936,0.047
,-0.19,0.26!,10,2
-0.034,0.625,0.011,0.029,0.013,0.037,1.935,0.046
,-0.18,0.26!,10,2
-0.034,0.625,0.011,0.030,0.013,0.037,1.936,0.046
,-0.17,0.25!,10,2
-0.034,0.625,0.011,0.030,0.012,0.038,1.934,0.048
,-0.18,0.25!,10,2
-0.034,0.625,0.010,0.029,0.011,0.037,1.935,0.047
,-0.20,0.25!,10,2
-0.034,0.625,0.010,0.029,0.012,0.037,1.936,0.046
,-0.20,0.25!,10,2
-0.034,0.625,0.010,0.030,0.011,0.037,1.934,0.047
,-0.19,0.25!,10,2
-0.034,0.625,0.011,0.030,0.011,0.037,1.934,0.046
,-0.20,0.25!,10,2
-0.034,0.625,0.010,0.030,0.013,0.037,1.935,0.046
,-0.20,0.25!,10,2
-0.034,0.625,0.010,0.029,0.012,0.038,1.933,0.045
,-0.20,0.25!,10,2
-0.034,0.625,0.010,0.028,0.012,0.037,1.935,0.045
,-0.21,0.25!,10,2
-0.034,0.625,0.010,0.027,0.013,0.039,1.933,0.046
,-0.21,0.25!,10,2
-0.034,0.625,0.010,0.025,0.014,0.039,1.933,0.045
,-0.20,0.25!,10,2
-0.034,0.625,0.010,0.024,0.014,0.040,1.934,0.045
,-0.18,0.25!,10,2
-0.034,0.625,0.010,0.023,0.013,0.041,1.933,0.046
,-0.17,0.27!,10,2
-0.034,0.625,0.010,0.022,0.013,0.040,1.933,0.046
,-0.15,0.29!,10,2
-0.034,0.625,0.010,0.019,0.014,0.042,1.935,0.046
,-0.14,0.30!,10,2
-0.034,0.625,0.009,0.017,0.016,0.042,1.933,0.046
,-0.12,0.31!,10,2
-0.034,0.625,0.009,0.015,0.016,0.041,1.934,0.045
,-0.10,0.32!,10,2
-0.034,0.625,0.009,0.014,0.017,0.040,1.934,0.045
,-0.10,0.32!,10,2
-0.034,0.625,0.009,0.015,0.018,0.041,1.933,0.046
,-0.08,0.30!,10,2
-0.034,0.625,0.010,0.016,0.019,0.039,1.935,0.044
,-0.08,0.30!,10,2
-0.034,0.625,0.011,0.017,0.019,0.039,1.935,0.045
,-0.08,0.30!,10,2
-0.034,0.625,0.011,0.016,0.019,0.039,1.934,0.044
,-0.08,0.30!,10,2
-0.034,0.625,0.011,0.016,0.020,0.039,1.936,0.044
,-0.09,0.28!,10,2
-0.034,0.625,0.011,0.017,0.021,0.040,1.935,0.045
,-0.08,0.28!,10,2
-0.034,0.625,0.011,0.017,0.021,0.039,1.934,0.044
,-0.08,0.27!,10,2
-0.034,0.625,0.011,0.017,0.020,0.039,1.935,0.044
,-0.08,0.27!,10,2
-0.034,0.625,0.011,0.017,0.020,0.039,1.933,0.044
,-0.09,0.27!,10,2
-0.034,0.625,0.011,0.016,0.020,0.039,1.934,0.044
,-0.09,0.27!,10,2
-0.034,0.625,0.011,0.015,0.020,0.038,1.934,0.045
,-0.09,0.27!,10,2
-0.034,0.625,0.010,0.014,0.020,0.040,1.932,0.045
,-0.08,0.27!,10,2
-0.034,0.625,0.009,0.014,0.020,0.041,1.934,0.044
,-0.07,0.26!,10,2
-0.034,0.625,0.010,0.015,0.020,0.040,1.933,0.045
,-0.07,0.27!,10,2
-0.034,0.625,0.010,0.015,0.020,0.039,1.932,0.044
,-0.07,0.30!,10,2
-0.034,0.625,0.010,0.014,0.020,0.039,1.934,0.043
,-0.07,0.30!,10,2
-0.034,0.625,0.011,0.014,0.020,0.038,1.933,0.044
,-0.07,0.28!,10,2
-0.033,0.625,0.011,0.013,0.021,0.038,1.933,0.044
,-0.08,0.27!,10,2
-0.034,0.625,0.011,0.013,0.022,0.039,1.935,0.043
,-0.07,0.26!,10,2
-0.034,0.625,0.011,0.014,0.022,0.039,1.932,0.044
,-0.05,0.26!,10,2
-0.033,0.625,0.011,0.014,0.021,0.040,1.934,0.044
,-0.05,0.28!,10,2
-0.034,0.625,0.011,0.014,0.021,0.039,1.935,0.044
,-0.05,0.29!,10,2
-0.033,0.625,0.012,0.014,0.021,0.039,1.933,0.045
,-0.20,0.29!,10,2
-0.034,0.625,0.011,0.013,0.021,0.039,1.935,0.044
,-0.28,0.29!,10,2
-0.034,0.625,0.011,0.015,0.021,0.040,1.935,0.045
,-0.13,0.28!,10,2
-0.033,0.625,0.011,0.014,0.021,0.041,1.934,0.044
,-0.02,0.28!,10,2
-0.034,0.625,0.011,0.015,0.021,0.041,1.935,0.044
,-0.01,0.29!,10,2
-0.033,0.625,0.011,0.015,0.020,0.041,1.934,0.043
,-0.19,0.30!,10,2
-0.034,0.625,0.011,0.015,0.019,0.040,1.934,0.044
,-0.30,0.30!,10,2
-0.034,0.625,0.011,0.015,0.020,0.040,1.935,0.043
,-0.17,0.30!,10,2
-0.033,0.625,0.010,0.015,0.020,0.039,1.933,0.043
,-0.06,0.29!,10,2
-0.034,0.625,0.011,0.015,0.020,0.039,1.934,0.043
,-0.04,0.28!,10,2
-0.033,0.625,0.010,0.015,0.020,0.038,1.933,0.042
,-0.20,0.27!,10,2
-0.034,0.625,0.010,0.015,0.020,0.037,1.932,0.042
,-0.31,0.27!,10,2
-0.033,0.625,0.011,0.015,0.020,0.037,1.933,0.041
,-0.18,0.26!,10,2
-0.034,0.625,0.013,0.015,0.019,0.035,1.933,0.043
,-0.08,0.26!,10,2
-0.034,0.625,0.011,0.013,0.020,0.036,1.933,0.043
,-0.04,0.25!,10,2
-0.034,0.625,0.012,0.015,0.021,0.037,1.934,0.043
,-0.04,0.25!,10,2
-0.033,0.625,0.012,0.015,0.022,0.037,1.933,0.043
,-0.07,0.24!,10,2
-0.033,0.625,0.012,0.015,0.022,0.036,1.934,0.044
,-0.08,0.24!,10,2
-0.034,0.625,0.012,0.017,0.021,0.035,1.935,0.043
,-0.07,0.25!,10,2
-0.033,0.625,0.011,0.018,0.022,0.035,1.933,0.043
,-0.06,0.24!,10,2
-0.034,0.625,0.011,0.020,0.023,0.036,1.935,0.044
,0.10,0.23!,10,2
-0.034,0.625,0.011,0.022,0.023,0.037,1.935,0.044
,0.16,0.23!,10,2
-0.034,0.625,0.011,0.024,0.023,0.037,1.933,0.044
,-0.03,0.24!,10,2
-0.033,0.625,0.010,0.026,0.023,0.037,1.935,0.044
,-0.17,0.24!,10,2
-0.034,0.625,0.011,0.027,0.023,0.036,1.934,0.045
,-0.22,0.25!,10,2
-0.034,0.625,0.010,0.029,0.023,0.035,1.933,0.045
,-0.23,0.25!,10,2
-0.034,0.625,0.010,0.029,0.022,0.035,1.935,0.045
,-0.24,0.24!,10,2
-0.034,0.625,0.010,0.032,0.022,0.036,1.933,0.043
,-0.24,0.23!,10,2
-0.034,0.625,0.010,0.032,0.022,0.036,1.933,0.044
,-0.25,0.23!,10,2
-0.033,0.625,0.010,0.033,0.021,0.036,1.934,0.044
,-0.26,0.23!,10,2
-0.034,0.625,0.010,0.033,0.021,0.036,1.932,0.045
,-0.27,0.23!,10,2
-0.034,0.625,0.010,0.032,0.021,0.035,1.933,0.043
,-0.28,0.24!,10,2
-0.034,0.625,0.010,0.032,0.021,0.036,1.932,0.044
,-0.29,0.24!,10,2
-0.034,0.625,0.010,0.031,0.020,0.036,1.931,0.045
,-0.29,0.24!,10,2
-0.034,0.625,0.010,0.031,0.021,0.037,1.932,0.044
,-0.28,0.24!,10,2
-0.034,0.625,0.010,0.031,0.020,0.038,1.931,0.044
,-0.27,0.25!,10,2
-0.034,0.625,0.010,0.032,0.021,0.038,1.931,0.044
,-0.27,0.25!,10,2
-0.034,0.625,0.010,0.031,0.021,0.038,1.933,0.044
,-0.27,0.26!,10,2
-0.033,0.625,0.010,0.031,0.021,0.036,1.932,0.045
,-0.28,0.26!,10,2
-0.034,0.625,0.009,0.030,0.021,0.039,1.934,0.045
,-0.28,0.25!,10,2
-0.034,0.625,0.009,0.030,0.020,0.039,1.934,0.044
,-0.47,0.24!,10,2
-0.034,0.625,0.008,0.031,0.020,0.040,1.933,0.045
,-0.58,0.24!,10,2
-0.034,0.625,0.010,0.032,0.020,0.039,1.935,0.045
,-0.40,0.26!,10,2
-0.034,0.625,0.009,0.032,0.020,0.039,1.935,0.045
,-0.27,0.27!,10,2
-0.034,0.625,0.010,0.032,0.020,0.039,1.934,0.044
,-0.23,0.27!,10,2
-0.034,0.625,0.010,0.031,0.020,0.039,1.935,0.044
,-0.24,0.27!,10,2
-0.034,0.625,0.011,0.032,0.019,0.039,1.934,0.045
,-0.26,0.27!,10,2
-0.034,0.625,0.010,0.032,0.019,0.040,1.934,0.046
,-0.25,0.28!,10,2
-0.034,0.625,0.011,0.033,0.021,0.041,1.935,0.044
,-0.24,0.28!,10,2
-0.034,0.625,0.011,0.033,0.021,0.040,1.933,0.044
,-0.24,0.29!,10,2
-0.034,0.625,0.011,0.033,0.021,0.039,1.933,0.045
,-0.25,0.30!,10,2
-0.034,0.625,0.011,0.032,0.021,0.038,1.933,0.045
,-0.26,0.30!,10,2
-0.034,0.625,0.011,0.031,0.021,0.038,1.931,0.045
,-0.27,0.28!,10,2
-0.033,0.625,0.011,0.032,0.021,0.038,1.932,0.044
,-0.26,0.27!,10,2
-0.034,0.625,0.011,0.032,0.020,0.038,1.932,0.045
,-0.26,0.26!,10,2
-0.034,0.625,0.011,0.032,0.020,0.038,1.931,0.046
,-0.48,0.26!,10,2
-0.034,0.625,0.011,0.032,0.021,0.037,1.933,0.046
,-0.60,0.26!,10,2
-0.034,0.625,0.012,0.031,0.021,0.037,1.932,0.046
,-0.39,0.26!,10,2
-0.034,0.625,0.011,0.030,0.019,0.037,1.932,0.046
,-0.25,0.25!,10,2
-0.034,0.625,0.012,0.031,0.019,0.036,1.933,0.046
,-0.19,0.25!,10,2
-0.034,0.625,0.012,0.030,0.019,0.036,1.932,0.045
,-0.19,0.25!,10,2
-0.034,0.625,0.013,0.031,0.019,0.037,1.933,0.045
,-0.20,0.25!,10,2
-0.034,0.625,0.012,0.031,0.020,0.038,1.934,0.045
,-0.20,0.24!,10,2
-0.034,0.625,0.013,0.031,0.020,0.038,1.933,0.046
,-0.20,0.25!,10,2
-0.034,0.625,0.014,0.030,0.020,0.038,1.934,0.045
,-0.20,0.26!,10,2
-0.034,0.625,0.013,0.030,0.019,0.037,1.934,0.043
,-0.20,0.27!,10,2
-0.034,0.625,0.013,0.031,0.018,0.037,1.932,0.043
,-0.20,0.27!,10,2
-0.034,0.625,0.012,0.032,0.020,0.037,1.934,0.043
,-0.20,0.26!,10,2
-0.034,0.625,0.012,0.032,0.020,0.036,1.932,0.043
,-0.21,0.25!,10,2
-0.034,0.625,0.012,0.031,0.022,0.036,1.932,0.043
,-0.23,0.24!,10,2
-0.034,0.625,0.012,0.030,0.021,0.037,1.933,0.043
,-0.24,0.24!,10,2
-0.034,0.625,0.011,0.029,0.021,0.037,1.931,0.043
,-0.23,0.24!,10,2
-0.034,0.625,0.011,0.029,0.021,0.035,1.932,0.043
,-0.23,0.25!,10,2
-0.034,0.625,0.010,0.029,0.021,0.037,1.933,0.042
,-0.23,0.24!,10,2
-0.034,0.625,0.009,0.029,0.020,0.038,1.931,0.044
,-0.24,0.22!,10,2
-0.034,0.625,0.009,0.030,0.019,0.040,1.932,0.045
,-0.24,0.23!,10,2
-0.034,0.625,0.010,0.028,0.019,0.040,1.932,0.044
,-0.25,0.26!,10,2
-0.034,0.625,0.010,0.027,0.017,0.041,1.931,0.044
,-0.25,0.27!,10,2
-0.034,0.625,0.011,0.028,0.017,0.040,1.932,0.045
,-0.23,0.29!,10,2
-0.034,0.625,0.012,0.028,0.014,0.041,1.931,0.044
,-0.22,0.29!,10,2
-0.034,0.625,0.013,0.028,0.013,0.041,1.931,0.045
,-0.20,0.29!,10,2
-0.034,0.625,0.014,0.028,0.013,0.039,1.933,0.044
,-0.18,0.29!,10,2
-0.034,0.625,0.015,0.028,0.012,0.039,1.931,0.046
,-0.15,0.30!,10,2
-0.034,0.625,0.015,0.027,0.012,0.038,1.933,0.045
,-0.12,0.29!,10,2
-0.034,0.625,0.015,0.027,0.012,0.036,1.934,0.044
,-0.11,0.28!,10,2
-0.034,0.625,0.015,0.028,0.012,0.034,1.932,0.044
,-0.10,0.26!,10,2
-0.034,0.625,0.016,0.029,0.013,0.035,1.934,0.044
,-0.10,0.24!,10,2
-0.034,0.625,0.016,0.029,0.013,0.036,1.933,0.045
,-0.11,0.23!,10,2
-0.034,0.625,0.016,0.028,0.012,0.036,1.932,0.045
,-0.12,0.23!,10,2
-0.034,0.625,0.016,0.028,0.013,0.036,1.934,0.045
,-0.11,0.23!,10,2
-0.034,0.625,0.015,0.028,0.013,0.036,1.932,0.045
,-0.09,0.24!,10,2
-0.034,0.625,0.014,0.028,0.013,0.037,1.931,0.045
,-0.09,0.24!,10,2
-0.034,0.625,0.012,0.029,0.012,0.037,1.933,0.045
,-0.10,0.24!,10,2
-0.034,0.625,0.012,0.029,0.012,0.037,1.930,0.044
,-0.13,0.24!,10,2
-0.034,0.625,0.012,0.029,0.012,0.037,1.931,0.045
,-0.15,0.25!,10,2
-0.034,0.625,0.012,0.028,0.012,0.038,1.932,0.044
,-0.17,0.25!,10,2
-0.034,0.625,0.011,0.027,0.012,0.037,1.929,0.044
,-0.17,0.25!,10,2
-0.034,0.625,0.012,0.027,0.012,0.037,1.931,0.042
,-0.16,0.25!,10,2
-0.034,0.625,0.012,0.027,0.013,0.038,1.931,0.042
,-0.15,0.25!,10,2
-0.034,0.625,0.012,0.028,0.013,0.038,1.930,0.043
,-0.14,0.25!,10,2
-0.034,0.625,0.013,0.028,0.013,0.038,1.932,0.042
,-0.15,0.26!,10,2
-0.034,0.625,0.013,0.028,0.012,0.037,1.931,0.042
,-0.15,0.27!,10,2
-0.034,0.625,0.013,0.027,0.013,0.037,1.932,0.043
,-0.16,0.27!,10,2
-0.034,0.625,0.012,0.027,0.014,0.036,1.933,0.044
,-0.15,0.26!,10,2
-0.034,0.625,0.012,0.028,0.014,0.038,1.931,0.043
,-0.14,0.25!,10,2
-0.034,0.625,0.014,0.028,0.014,0.039,1.932,0.043
,-0.16,0.26!,10,2
-0.034,0.625,0.014,0.028,0.013,0.039,1.932,0.044
,-0.16,0.27!,10,2
-0.034,0.625,0.014,0.028,0.013,0.039,1.931,0.045
,-0.13,0.27!,10,2
-0.034,0.625,0.014,0.028,0.011,0.038,1.933,0.044
,-0.12,0.28!,10,2
-0.034,0.625,0.014,0.029,0.012,0.038,1.932,0.044
,-0.12,0.27!,10,2
-0.034,0.625,0.013,0.029,0.012,0.038,1.931,0.044
,-0.12,0.26!,10,2
-0.034,0.625,0.013,0.030,0.013,0.038,1.933,0.043
,-0.12,0.26!,10,2
-0.034,0.625,0.013,0.030,0.013,0.038,1.931,0.043
,-0.14,0.26!,10,2
-0.034,0.625,0.013,0.030,0.012,0.038,1.931,0.043
,-0.16,0.26!,10,2
-0.034,0.625,0.013,0.029,0.012,0.038,1.932,0.043
,-0.17,0.26!,10,2
-0.034,0.625,0.013,0.028,0.013,0.038,1.930,0.044
,-0.16,0.26!,10,2
-0.034,0.625,0.012,0.028,0.013,0.038,1.931,0.045
,-0.15,0.26!,10,2
-0.034,0.625,0.011,0.028,0.014,0.037,1.931,0.044
,-0.15,0.26!,10,2
-0.034,0.625,0.011,0.029,0.013,0.038,1.930,0.044
,-0.16,0.26!,10,2
-0.034,0.625,0.011,0.028,0.013,0.038,1.931,0.044
,-0.18,0.26!,10,2
-0.034,0.625,0.011,0.028,0.013,0.039,1.931,0.045
,-0.20,0.27!,10,2
-0.034,0.625,0.011,0.028,0.014,0.039,1.931,0.045
,-0.19,0.27!,10,2
-0.034,0.625,0.010,0.029,0.014,0.039,1.932,0.044
,-0.18,0.28!,10,2
-0.034,0.625,0.011,0.030,0.014,0.038,1.931,0.044
,-0.19,0.28!,10,2
-0.034,0.625,0.012,0.031,0.014,0.037,1.931,0.045
,-0.19,0.28!,10,2
-0.034,0.625,0.012,0.032,0.014,0.036,1.932,0.043
,-0.20,0.27!,10,2
-0.034,0.625,0.012,0.032,0.014,0.037,1.930,0.042
,-0.21,0.25!,10,2
-0.034,0.625,0.012,0.032,0.013,0.037,1.932,0.043
,-0.21,0.25!,10,2
-0.034,0.625,0.012,0.032,0.014,0.036,1.932,0.043
,-0.21,0.25!,10,2
-0.034,0.625,0.012,0.033,0.014,0.038,1.930,0.043
,-0.21,0.25!,10,2
-0.034,0.625,0.013,0.034,0.015,0.037,1.932,0.042
,-0.21,0.24!,10,2
-0.034,0.625,0.013,0.034,0.013,0.037,1.931,0.043
,-0.22,0.24!,10,2
-0.034,0.625,0.012,0.034,0.013,0.038,1.931,0.043
,-0.23,0.24!,10,2
-0.034,0.625,0.012,0.033,0.013,0.038,1.933,0.043
,-0.23,0.25!,10,2
-0.034,0.625,0.011,0.033,0.013,0.039,1.930,0.043
,-0.22,0.26!,10,2
-0.034,0.625,0.011,0.032,0.012,0.038,1.931,0.044
,-0.22,0.27!,10,2
-0.034,0.625,0.010,0.033,0.012,0.038,1.932,0.045
,-0.23,0.28!,10,2
-0.034,0.625,0.011,0.033,0.013,0.039,1.930,0.046
,-0.23,0.28!,10,2
-0.034,0.625,0.010,0.034,0.013,0.038,1.931,0.047
,-0.23,0.27!,10,2
-0.034,0.625,0.010,0.033,0.013,0.037,1.932,0.047
,-0.24,0.26!,10,2
-0.034,0.625,0.010,0.032,0.013,0.038,1.930,0.046
,-0.25,0.26!,10,2
-0.034,0.625,0.011,0.032,0.013,0.038,1.932,0.047
,-0.25,0.26!,10,2
-0.034,0.625,0.011,0.032,0.012,0.037,1.931,0.046
,-0.24,0.27!,10,2
-0.034,0.625,0.011,0.032,0.013,0.038,1.931,0.045
,-0.22,0.26!,10,2
-0.034,0.625,0.011,0.033,0.013,0.038,1.933,0.046
,-0.21,0.25!,10,2
-0.034,0.625,0.010,0.033,0.013,0.037,1.932,0.044
,-0.22,0.25!,10,2
-0.034,0.625,0.011,0.032,0.013,0.037,1.932,0.045
,-0.24,0.26!,10,2
-0.034,0.625,0.010,0.032,0.013,0.037,1.933,0.044
,-0.25,0.26!,10,2
-0.034,0.625,0.010,0.033,0.012,0.037,1.932,0.043
,-0.25,0.25!,10,2
-0.034,0.625,0.012,0.034,0.012,0.037,1.933,0.044
,-0.25,0.25!,10,2
-0.034,0.625,0.012,0.035,0.011,0.038,1.932,0.044
,-0.24,0.25!,10,2
-0.034,0.625,0.012,0.034,0.012,0.037,1.931,0.044
,-0.22,0.26!,10,2
-0.034,0.625,0.011,0.034,0.012,0.037,1.932,0.045
,-0.22,0.26!,10,2
-0.034,0.625,0.012,0.034,0.012,0.036,1.930,0.045
,-0.23,0.26!,10,2
-0.034,0.625,0.011,0.033,0.012,0.036,1.930,0.044
,-0.23,0.25!,10,2
-0.034,0.625,0.011,0.034,0.012,0.036,1.932,0.046
,-0.22,0.25!,10,2
-0.034,0.625,0.011,0.034,0.012,0.036,1.930,0.044
,-0.21,0.24!,10,2
-0.034,0.625,0.011,0.034,0.012,0.037,1.930,0.044
,-0.23,0.24!,10,2
-0.034,0.625,0.012,0.032,0.012,0.036,1.931,0.045
,-0.26,0.24!,10,2
-0.034,0.625,0.011,0.031,0.012,0.036,1.929,0.044
,-0.25,0.24!,10,2
-0.034,0.625,0.012,0.031,0.012,0.035,1.931,0.045
,-0.24,0.23!,10,2
-0.034,0.625,0.011,0.032,0.011,0.037,1.930,0.044
,-0.23,0.23!,10,2
-0.034,0.625,0.011,0.032,0.012,0.036,1.928,0.044
,-0.23,0.22!,10,2
-0.034,0.625,0.011,0.032,0.013,0.036,1.930,0.044
,-0.24,0.22!,10,2
-0.034,0.625,0.012,0.032,0.013,0.037,1.929,0.045
,-0.24,0.23!,10,2
-0.034,0.625,0.011,0.031,0.013,0.037,1.929,0.044
,-0.24,0.24!,10,2
-0.034,0.625,0.011,0.031,0.013,0.037,1.931,0.043
,-0.24,0.25!,10,2
-0.034,0.625,0.012,0.032,0.013,0.037,1.929,0.045
,-0.24,0.25!,10,2
-0.034,0.625,0.012,0.033,0.012,0.038,1.930,0.045
,-0.23,0.25!,10,2
-0.034,0.625,0.011,0.032,0.013,0.037,1.931,0.044
,-0.22,0.26!,10,2
-0.034,0.625,0.012,0.030,0.014,0.037,1.929,0.044
,-0.23,0.26!,10,2
-0.034,0.625,0.012,0.029,0.013,0.037,1.931,0.044
,-0.24,0.26!,10,2
-0.034,0.625,0.012,0.027,0.013,0.038,1.931,0.044
,-0.22,0.25!,10,2
-0.034,0.625,0.011,0.026,0.012,0.037,1.930,0.044
,-0.19,0.26!,10,2
-0.034,0.625,0.011,0.024,0.014,0.037,1.931,0.043
,-0.17,0.26!,10,2
-0.034,0.625,0.011,0.022,0.014,0.036,1.929,0.045
,-0.16,0.26!,10,2
-0.034,0.625,0.011,0.019,0.014,0.036,1.929,0.044
,-0.15,0.25!,10,2
-0.034,0.625,0.011,0.015,0.014,0.036,1.930,0.045
,-0.12,0.25!,10,2
-0.034,0.625,0.010,0.012,0.014,0.036,1.929,0.044
,-0.09,0.24!,10,2
-0.034,0.625,0.010,0.011,0.014,0.037,1.930,0.045
,-0.05,0.24!,10,2
-0.034,0.625,0.009,0.011,0.014,0.036,1.930,0.045
,-0.05,0.24!,10,2
-0.034,0.625,0.010,0.011,0.014,0.036,1.928,0.045
,-0.12,0.24!,10,2
-0.034,0.625,0.010,0.012,0.014,0.036,1.930,0.045
,-0.15,0.23!,10,2
-0.034,0.625,0.011,0.012,0.014,0.036,1.930,0.046
,-0.16,0.23!,10,2
-0.034,0.625,0.011,0.012,0.013,0.036,1.929,0.045
,-0.16,0.24!,10,2
-0.034,0.625,0.011,0.012,0.014,0.036,1.931,0.045
,-0.15,0.24!,10,2
-0.034,0.625,0.011,0.013,0.013,0.036,1.929,0.046
,-0.14,0.24!,10,2
-0.034,0.625,0.011,0.012,0.013,0.036,1.929,0.046
,-0.15,0.24!,10,2
-0.034,0.625,0.011,0.011,0.013,0.036,1.931,0.046
,-0.16,0.24!,10,2
-0.034,0.625,0.012,0.011,0.014,0.035,1.929,0.046
,-0.15,0.24!,10,2
-0.034,0.625,0.012,0.011,0.012,0.036,1.931,0.047
,-0.12,0.24!,10,2
-0.034,0.625,0.012,0.011,0.012,0.037,1.931,0.047
,-0.10,0.24!,10,2
-0.034,0.625,0.012,0.010,0.012,0.036,1.929,0.047
,-0.09,0.24!,10,2
-0.034,0.625,0.012,0.010,0.012,0.037,1.930,0.046
,-0.09,0.24!,10,2
-0.034,0.625,0.012,0.009,0.013,0.037,1.929,0.047
,-0.08,0.23!,10,2
-0.034,0.625,0.012,0.009,0.013,0.037,1.928,0.047
,-0.07,0.24!,10,2
-0.034,0.625,0.012,0.010,0.013,0.039,1.929,0.047
,-0.06,0.25!,10,2
-0.034,0.625,0.013,0.012,0.013,0.037,1.928,0.047
,-0.06,0.26!,10,2
-0.034,0.625,0.012,0.012,0.014,0.038,1.927,0.047
,-0.07,0.28!,10,2
-0.034,0.625,0.011,0.012,0.014,0.038,1.928,0.047
,-0.10,0.28!,10,2
-0.034,0.625,0.011,0.012,0.014,0.038,1.926,0.046
,-0.13,0.27!,10,2
-0.034,0.625,0.011,0.013,0.015,0.037,1.928,0.047
,-0.16,0.27!,10,2
-0.034,0.625,0.011,0.012,0.015,0.036,1.928,0.046
,-0.17,0.26!,10,2
-0.034,0.625,0.010,0.013,0.015,0.036,1.927,0.046
,-0.17,0.25!,10,2
-0.034,0.625,0.010,0.014,0.014,0.036,1.929,0.047
,-0.18,0.24!,10,2
-0.034,0.625,0.010,0.014,0.013,0.037,1.928,0.047
,-0.20,0.23!,10,2
-0.034,0.625,0.010,0.013,0.013,0.036,1.927,0.048
,-0.16,0.24!,10,2
-0.034,0.625,0.009,0.012,0.013,0.036,1.929,0.048
,-0.07,0.24!,10,2
-0.034,0.625,0.011,0.013,0.013,0.036,1.928,0.047
,-0.08,0.23!,10,2
-0.034,0.625,0.011,0.012,0.013,0.036,1.928,0.047
,-0.16,0.23!,10,2
-0.034,0.625,0.011,0.012,0.013,0.036,1.930,0.047
,-0.15,0.24!,10,2
-0.034,0.625,0.011,0.015,0.013,0.036,1.928,0.047
,-0.05,0.24!,10,2
-0.034,0.625,0.011,0.015,0.013,0.036,1.929,0.046
,-0.06,0.24!,10,2
-0.034,0.625,0.011,0.014,0.014,0.037,1.930,0.046
,-0.10,0.24!,10,2
-0.034,0.625,0.011,0.014,0.015,0.037,1.927,0.045
,-0.07,0.24!,10,2
-0.034,0.625,0.011,0.014,0.015,0.036,1.929,0.046
,-0.03,0.24!,10,2
-0.034,0.625,0.011,0.015,0.015,0.036,1.928,0.044
,-0.02,0.25!,10,2
-0.034,0.625,0.010,0.014,0.014,0.036,1.927,0.043
,-0.03,0.25!,10,2
-0.034,0.625,0.010,0.014,0.014,0.035,1.929,0.042
,-0.04,0.24!,10,2
-0.034,0.625,0.010,0.014,0.013,0.035,1.927,0.043
,-0.05,0.23!,10,2
-0.034,0.625,0.010,0.014,0.014,0.035,1.927,0.043
,-0.05,0.22!,10,2
-0.034,0.625,0.010,0.011,0.014,0.036,1.928,0.042
,-0.05,0.22!,10,2
-0.034,0.625,0.010,0.011,0.014,0.037,1.927,0.042
,-0.03,0.22!,10,2
-0.034,0.625,0.011,0.012,0.012,0.036,1.928,0.043
,-0.05,0.23!,10,2
-0.034,0.625,0.010,0.012,0.012,0.037,1.928,0.042
,-0.12,0.25!,10,2
-0.034,0.625,0.010,0.011,0.011,0.037,1.927,0.042
,-0.15,0.26!,10,2
-0.034,0.625,0.010,0.011,0.011,0.036,1.929,0.043
,-0.15,0.26!,10,2
-0.034,0.625,0.011,0.011,0.012,0.036,1.929,0.043
,-0.14,0.25!,10,2
-0.034,0.625,0.010,0.010,0.012,0.036,1.928,0.043
,-0.12,0.24!,10,2
-0.034,0.625,0.010,0.010,0.014,0.036,1.930,0.042
,-0.11,0.23!,10,2
-0.034,0.625,0.010,0.013,0.013,0.037,1.928,0.042
,-0.10,0.24!,10,2
-0.034,0.625,0.010,0.012,0.014,0.035,1.929,0.042
,-0.12,0.24!,10,2
-0.034,0.625,0.009,0.012,0.015,0.035,1.929,0.042
,-0.11,0.25!,10,2
-0.034,0.625,0.010,0.012,0.016,0.035,1.927,0.041
,-0.06,0.25!,10,2
-0.034,0.625,0.010,0.012,0.015,0.035,1.929,0.041
,-0.02,0.23!,10,2
-0.034,0.625,0.010,0.012,0.016,0.036,1.928,0.042
,-0.01,0.22!,10,2
-0.034,0.625,0.010,0.012,0.017,0.036,1.926,0.041
,-0.02,0.22!,10,2
-0.034,0.625,0.009,0.012,0.017,0.038,1.928,0.041
,-0.03,0.23!,10,2
-0.034,0.625,0.009,0.013,0.017,0.038,1.927,0.042
,-0.04,0.24!,10,2
-0.034,0.625,0.009,0.013,0.016,0.040,1.927,0.042
,-0.06,0.25!,10,2
-0.034,0.625,0.010,0.012,0.017,0.040,1.929,0.041
,-0.07,0.26!,10,2
-0.034,0.625,0.010,0.011,0.016,0.041,1.927,0.041
,-0.07,0.27!,10,2
-0.034,0.625,0.010,0.011,0.017,0.041,1.927,0.042
,-0.05,0.28!,10,2
-0.034,0.625,0.009,0.011,0.018,0.042,1.928,0.043
,-0.03,0.29!,10,2
-0.034,0.625,0.010,0.011,0.018,0.041,1.927,0.043
,-0.08,0.30!,10,2
-0.034,0.625,0.011,0.011,0.018,0.041,1.928,0.041
,-0.16,0.30!,10,2
-0.034,0.625,0.011,0.011,0.017,0.041,1.929,0.043
,-0.18,0.30!,10,2
-0.034,0.625,0.012,0.011,0.019,0.040,1.927,0.043
,-0.16,0.30!,10,2
-0.034,0.625,0.011,0.010,0.019,0.040,1.929,0.044
,-0.13,0.30!,10,2
-0.034,0.625,0.011,0.012,0.019,0.038,1.928,0.044
,-0.11,0.30!,10,2
-0.034,0.625,0.011,0.010,0.020,0.040,1.928,0.044
,-0.12,0.29!,10,2
-0.034,0.625,0.012,0.010,0.020,0.039,1.930,0.043
,-0.11,0.29!,10,2
-0.034,0.625,0.013,0.010,0.019,0.038,1.927,0.043
,-0.04,0.30!,10,2
-0.034,0.625,0.013,0.010,0.018,0.038,1.928,0.043
,-0.03,0.29!,10,2
-0.034,0.625,0.013,0.010,0.018,0.038,1.928,0.042
,-0.07,0.27!,10,2
-0.034,0.625,0.012,0.010,0.019,0.038,1.926,0.042
,-0.09,0.26!,10,2
-0.034,0.625,0.013,0.011,0.019,0.039,1.926,0.043
,-0.10,0.26!,10,2
-0.034,0.625,0.012,0.010,0.017,0.039,1.922,0.044
,-0.11,0.27!,10,2
-0.034,0.625,0.012,0.011,0.017,0.039,1.914,0.041
,-0.09,0.28!,10,2
-0.034,0.625,0.012,0.009,0.017,0.040,1.912,0.042
,-0.02,0.28!,10,2
-0.034,0.625,0.013,0.009,0.016,0.037,1.907,0.043
,0.01,0.28!,10,2
-0.034,0.625,0.011,0.009,0.017,0.038,1.902,0.044
,0.03,0.26!,10,2
-0.034,0.625,0.011,0.009,0.018,0.038,1.902,0.043
,-0.01,0.24!,10,2
-0.034,0.625,0.011,0.009,0.017,0.037,1.897,0.043
,-0.08,0.24!,10,2
-0.034,0.625,0.011,0.009,0.017,0.037,1.895,0.044
,-0.11,0.26!,10,2
-0.034,0.625,0.011,0.009,0.016,0.038,1.894,0.045
,-0.11,0.26!,10,2
-0.034,0.625,0.010,0.009,0.017,0.037,1.891,0.043
,-0.10,0.25!,10,2
-0.034,0.625,0.011,0.010,0.017,0.038,1.895,0.044
,-0.09,0.25!,10,2
-0.034,0.625,0.010,0.009,0.017,0.037,1.899,0.044
,-0.10,0.25!,10,2
-0.034,0.625,0.010,0.010,0.017,0.037,1.900,0.044
,-0.10,0.24!,10,2
-0.034,0.625,0.009,0.012,0.016,0.037,1.902,0.045
,-0.11,0.25!,10,2
-0.034,0.625,0.010,0.015,0.016,0.037,1.900,0.045
,-0.13,0.25!,10,2
-0.034,0.625,0.009,0.018,0.014,0.038,1.897,0.045
,-0.11,0.25!,10,2
-0.034,0.625,0.009,0.021,0.014,0.038,1.899,0.046
,-0.07,0.26!,10,2
-0.034,0.625,0.009,0.024,0.014,0.038,1.895,0.046
,-0.09,0.26!,10,2
-0.034,0.625,0.009,0.027,0.014,0.037,1.892,0.045
,-0.14,0.27!,10,2
-0.034,0.625,0.009,0.028,0.015,0.038,1.892,0.045
,-0.19,0.27!,10,2
-0.034,0.625,0.009,0.030,0.015,0.036,1.885,0.046
,-0.22,0.26!,10,2
-0.034,0.625,0.009,0.031,0.016,0.036,1.882,0.046
,-0.24,0.27!,10,2
-0.034,0.625,0.009,0.033,0.016,0.038,1.879,0.044
,-0.26,0.26!,10,2
-0.034,0.625,0.010,0.034,0.018,0.038,1.875,0.043
,-0.28,0.24!,10,2
-0.034,0.625,0.009,0.035,0.019,0.037,1.877,0.044
,-0.30,0.24!,10,2
-0.034,0.625,0.010,0.035,0.020,0.036,1.876,0.044
,-0.33,0.26!,10,2
-0.034,0.625,0.010,0.036,0.020,0.037,1.874,0.044
,-0.35,0.25!,10,2
-0.034,0.625,0.010,0.034,0.021,0.035,1.877,0.044
,-0.35,0.24!,10,2
-0.034,0.625,0.010,0.034,0.023,0.036,1.875,0.043
,-0.33,0.23!,10,2
-0.034,0.625,0.010,0.034,0.023,0.035,1.874,0.045
,-0.32,0.22!,10,2
-0.034,0.625,0.010,0.034,0.023,0.035,1.877,0.043
,-0.32,0.22!,10,2
-0.034,0.625,0.010,0.034,0.023,0.035,1.874,0.044
,-0.33,0.22!,10,2
-0.034,0.625,0.011,0.035,0.023,0.034,1.875,0.045
,-0.33,0.22!,10,2
-0.034,0.625,0.011,0.035,0.023,0.034,1.876,0.044
,-0.32,0.22!,10,2
-0.034,0.625,0.010,0.034,0.021,0.034,1.874,0.043
,-0.32,0.22!,10,2
-0.034,0.625,0.010,0.033,0.021,0.037,1.876,0.044
,-0.32,0.21!,10,2
-0.034,0.625,0.010,0.034,0.021,0.037,1.876,0.044
,-0.33,0.23!,10,2
-0.034,0.625,0.009,0.034,0.021,0.039,1.873,0.044
,-0.32,0.25!,10,2
-0.034,0.625,0.011,0.035,0.019,0.037,1.876,0.044
,-0.31,0.27!,10,2
-0.034,0.625,0.011,0.035,0.018,0.038,1.874,0.045
,-0.31,0.28!,10,2
-0.034,0.625,0.011,0.035,0.017,0.038,1.873,0.045
,-0.29,0.28!,10,2
-0.034,0.625,0.011,0.035,0.017,0.038,1.876,0.044
,-0.29,0.27!,10,2
-0.034,0.625,0.011,0.034,0.017,0.039,1.872,0.043
,-0.29,0.27!,10,2
-0.034,0.625,0.011,0.035,0.016,0.038,1.872,0.045
,-0.30,0.26!,10,2
-0.034,0.625,0.011,0.035,0.016,0.039,1.873,0.046
,-0.30,0.26!,10,2
-0.034,0.625,0.011,0.035,0.016,0.037,1.871,0.046
,-0.30,0.26!,10,2
-0.034,0.625,0.012,0.034,0.016,0.038,1.873,0.046
,-0.29,0.25!,10,2
-0.034,0.625,0.012,0.033,0.016,0.037,1.873,0.045
,-0.28,0.24!,10,2
-0.034,0.625,0.011,0.033,0.018,0.038,1.871,0.046
,-0.26,0.24!,10,2
-0.034,0.625,0.011,0.033,0.021,0.039,1.874,0.045
,-0.25,0.24!,10,2
-0.034,0.625,0.010,0.034,0.022,0.039,1.872,0.046
,-0.27,0.26!,10,2
-0.034,0.625,0.011,0.035,0.022,0.039,1.872,0.046
,-0.30,0.27!,10,2
-0.034,0.625,0.011,0.034,0.023,0.038,1.875,0.046
,-0.33,0.28!,10,2
-0.034,0.625,0.011,0.034,0.024,0.041,1.873,0.046
,-0.34,0.28!,10,2
-0.034,0.625,0.011,0.034,0.025,0.042,1.875,0.046
,-0.33,0.29!,10,2
-0.034,0.625,0.010,0.035,0.026,0.042,1.875,0.045
,-0.32,0.31!,10,2
-0.034,0.625,0.010,0.035,0.026,0.042,1.872,0.045
,-0.33,0.32!,10,2
-0.034,0.625,0.011,0.036,0.027,0.041,1.875,0.045
,-0.34,0.32!,10,2
-0.034,0.625,0.012,0.035,0.026,0.041,1.874,0.046
,-0.36,0.31!,10,2
-0.034,0.625,0.012,0.036,0.024,0.040,1.872,0.046
,-0.36,0.30!,10,2
-0.034,0.625,0.011,0.035,0.024,0.040,1.875,0.045
,-0.34,0.29!,10,2
-0.034,0.625,0.010,0.035,0.024,0.039,1.873,0.045
,-0.33,0.28!,10,2
-0.034,0.625,0.010,0.035,0.024,0.040,1.872,0.047
,-0.34,0.28!,10,2
-0.034,0.625,0.009,0.035,0.023,0.036,1.875,0.044
,-0.34,0.27!,10,2
-0.034,0.625,0.009,0.035,0.022,0.035,1.872,0.043
,-0.34,0.25!,10,2
-0.034,0.625,0.009,0.033,0.020,0.036,1.872,0.044
,-0.35,0.23!,10,2
-0.034,0.625,0.010,0.033,0.019,0.033,1.873,0.044
,-0.34,0.22!,10,2
-0.034,0.625,0.008,0.031,0.018,0.034,1.870,0.044
,-0.31,0.23!,10,2
-0.034,0.625,0.007,0.031,0.018,0.034,1.873,0.042
,-0.28,0.23!,10,2
-0.034,0.625,0.007,0.030,0.017,0.033,1.872,0.041
,-0.28,0.22!,10,2
-0.034,0.625,0.007,0.030,0.015,0.033,1.870,0.041
,-0.30,0.21!,10,2
-0.034,0.625,0.007,0.028,0.015,0.033,1.874,0.041
,-0.31,0.20!,10,2
-0.034,0.625,0.008,0.027,0.013,0.033,1.872,0.039
,-0.30,0.19!,10,2
-0.034,0.625,0.009,0.026,0.013,0.035,1.873,0.039
,-0.27,0.20!,10,2
-0.034,0.625,0.008,0.025,0.013,0.034,1.876,0.039
,-0.24,0.21!,10,2
-0.034,0.625,0.009,0.026,0.013,0.035,1.872,0.037
,-0.22,0.23!,10,2
-0.034,0.625,0.010,0.027,0.013,0.036,1.874,0.037
,-0.22,0.23!,10,2
-0.034,0.625,0.010,0.027,0.012,0.035,1.874,0.037
,-0.22,0.23!,10,2
-0.034,0.625,0.010,0.027,0.011,0.035,1.871,0.037
,-0.20,0.23!,10,2
-0.034,0.625,0.010,0.027,0.012,0.036,1.874,0.038
,-0.19,0.22!,10,2
-0.034,0.625,0.010,0.027,0.013,0.035,1.872,0.038
,-0.19,0.23!,10,2
-0.034,0.625,0.010,0.027,0.012,0.035,1.870,0.038
,-0.20,0.24!,10,2
-0.034,0.625,0.009,0.028,0.012,0.036,1.873,0.037
,-0.20,0.24!,10,2
-0.034,0.625,0.010,0.028,0.012,0.034,1.870,0.039
,-0.20,0.23!,10,2
-0.034,0.625,0.009,0.028,0.012,0.035,1.870,0.040
,-0.22,0.22!,10,2
-0.034,0.625,0.008,0.026,0.012,0.034,1.873,0.041
,-0.23,0.21!,10,2
-0.034,0.625,0.009,0.026,0.012,0.033,1.869,0.041
,-0.22,0.20!,10,2
-0.034,0.625,0.008,0.026,0.011,0.033,1.872,0.041
,-0.20,0.20!,10,2
-0.034,0.625,0.008,0.026,0.010,0.033,1.873,0.041
,-0.19,0.20!,10,2
-0.034,0.625,0.008,0.026,0.010,0.033,1.870,0.041
,-0.19,0.20!,10,2
-0.034,0.625,0.008,0.025,0.009,0.033,1.874,0.040
,-0.21,0.20!,10,2
-0.034,0.625,0.008,0.025,0.009,0.034,1.873,0.042
,-0.21,0.20!,10,2
-0.034,0.625,0.008,0.024,0.010,0.034,1.872,0.042
,-0.21,0.20!,10,2
-0.034,0.625,0.009,0.024,0.010,0.036,1.875,0.041
,-0.20,0.21!,10,2
-0.034,0.625,0.009,0.024,0.010,0.037,1.872,0.040
,-0.19,0.23!,10,2
-0.034,0.625,0.011,0.026,0.010,0.036,1.873,0.039
,-0.18,0.24!,10,2
-0.034,0.625,0.010,0.026,0.010,0.037,1.875,0.040
,-0.18,0.24!,10,2
-0.034,0.625,0.011,0.026,0.012,0.037,1.872,0.040
,-0.19,0.24!,10,2
-0.034,0.625,0.011,0.026,0.012,0.037,1.874,0.040
,-0.19,0.24!,10,2
-0.034,0.625,0.011,0.026,0.012,0.037,1.875,0.039
,-0.19,0.25!,10,2
-0.034,0.625,0.012,0.026,0.011,0.037,1.872,0.038
,-0.17,0.25!,10,2
-0.034,0.625,0.011,0.027,0.012,0.037,1.874,0.038
,-0.14,0.27!,10,2
-0.034,0.625,0.011,0.027,0.012,0.037,1.873,0.039
,-0.14,0.27!,10,2
-0.034,0.625,0.011,0.027,0.012,0.036,1.871,0.039
,-0.15,0.27!,10,2
-0.034,0.625,0.011,0.026,0.011,0.034,1.874,0.039
,-0.16,0.26!,10,2
-0.034,0.625,0.011,0.025,0.011,0.033,1.871,0.038
,-0.17,0.25!,10,2
-0.034,0.625,0.011,0.025,0.010,0.032,1.871,0.037
,-0.16,0.24!,10,2
-0.034,0.625,0.010,0.025,0.010,0.033,1.874,0.037
,-0.14,0.21!,10,2
-0.034,0.625,0.010,0.026,0.010,0.032,1.871,0.037
,-0.13,0.21!,10,2
-0.034,0.625,0.010,0.026,0.010,0.032,1.874,0.038
,-0.14,0.21!,10,2
-0.034,0.625,0.010,0.026,0.010,0.031,1.874,0.040
,-0.15,0.21!,10,2
-0.034,0.625,0.010,0.025,0.010,0.030,1.872,0.038
,-0.16,0.20!,10,2
-0.034,0.625,0.009,0.025,0.010,0.029,1.875,0.038
,-0.16,0.19!,10,2
-0.034,0.625,0.009,0.026,0.009,0.029,1.873,0.038
,-0.16,0.17!,10,2
-0.034,0.625,0.010,0.027,0.010,0.029,1.873,0.039
,-0.17,0.16!,10,2
-0.034,0.625,0.008,0.027,0.012,0.029,1.876,0.040
,-0.17,0.16!,10,2
-0.034,0.625,0.009,0.026,0.012,0.029,1.872,0.040
,-0.17,0.16!,10,2
-0.034,0.625,0.010,0.026,0.011,0.028,1.874,0.040
,-0.18,0.16!,10,2
-0.034,0.625,0.010,0.025,0.011,0.027,1.875,0.038
,-0.18,0.15!,10,2
-0.034,0.625,0.010,0.024,0.011,0.028,1.872,0.038
,-0.18,0.14!,10,2
-0.034,0.625,0.010,0.024,0.012,0.029,1.874,0.037
,-0.16,0.14!,10,2
-0.034,0.625,0.010,0.023,0.011,0.029,1.875,0.038
,-0.14,0.15!,10,2
-0.034,0.625,0.010,0.022,0.012,0.031,1.872,0.039
,-0.13,0.15!,10,2
-0.034,0.625,0.010,0.021,0.012,0.030,1.875,0.037
,-0.13,0.16!,10,2
-0.034,0.625,0.010,0.019,0.012,0.031,1.872,0.035
,-0.12,0.16!,10,2
-0.034,0.625,0.010,0.018,0.012,0.034,1.871,0.036
,-0.11,0.17!,10,2
-0.034,0.625,0.010,0.016,0.013,0.034,1.875,0.036
,-0.10,0.19!,10,2
-0.034,0.625,0.009,0.015,0.014,0.034,1.871,0.036
,-0.08,0.23!,10,2
-0.034,0.625,0.009,0.016,0.013,0.035,1.872,0.038
,-0.07,0.24!,10,2
-0.034,0.625,0.009,0.016,0.013,0.035,1.874,0.039
,-0.06,0.23!,10,2
-0.034,0.625,0.008,0.016,0.014,0.035,1.871,0.039
,-0.07,0.23!,10,2
-0.034,0.625,0.008,0.017,0.015,0.034,1.874,0.039
,-0.08,0.24!,10,2
-0.034,0.625,0.008,0.017,0.015,0.033,1.874,0.039
,-0.11,0.23!,10,2
-0.034,0.625,0.008,0.016,0.015,0.036,1.871,0.040
,-0.12,0.23!,10,2
-0.034,0.625,0.009,0.016,0.015,0.036,1.876,0.041
,-0.12,0.24!,10,2
-0.034,0.625,0.009,0.017,0.013,0.033,1.875,0.040
,-0.10,0.26!,10,2
-0.034,0.625,0.009,0.017,0.011,0.034,1.874,0.041
,-0.08,0.25!,10,2
-0.034,0.625,0.008,0.017,0.012,0.035,1.877,0.041
,-0.08,0.21!,10,2
-0.034,0.625,0.009,0.016,0.012,0.035,1.873,0.040
,-0.09,0.21!,10,2
-0.034,0.625,0.009,0.016,0.011,0.035,1.874,0.039
,-0.09,0.23!,10,2
-0.034,0.625,0.009,0.016,0.011,0.034,1.875,0.039
,-0.08,0.24!,10,2
-0.034,0.625,0.008,0.015,0.010,0.036,1.871,0.039
,-0.07,0.24!,10,2
-0.034,0.625,0.008,0.016,0.010,0.037,1.874,0.039
,-0.06,0.25!,10,2
-0.034,0.625,0.009,0.016,0.010,0.035,1.874,0.040
,-0.06,0.26!,10,2
-0.034,0.625,0.008,0.016,0.010,0.036,1.871,0.041
,-0.07,0.25!,10,2
-0.034,0.625,0.008,0.015,0.010,0.037,1.874,0.040
,-0.08,0.24!,10,2
-0.034,0.625,0.008,0.015,0.011,0.037,1.872,0.039
,-0.08,0.24!,10,2
-0.034,0.625,0.009,0.016,0.010,0.038,1.871,0.040
,-0.07,0.26!,10,2
-0.034,0.625,0.008,0.017,0.010,0.038,1.874,0.039
,-0.07,0.28!,10,2
-0.034,0.625,0.009,0.017,0.013,0.038,1.870,0.040
,-0.08,0.29!,10,2
-0.034,0.625,0.009,0.017,0.012,0.038,1.872,0.041
,-0.10,0.29!,10,2
-0.034,0.625,0.009,0.017,0.013,0.038,1.873,0.040
,-0.11,0.28!,10,2
-0.034,0.625,0.010,0.016,0.012,0.038,1.870,0.040
,-0.10,0.28!,10,2
-0.034,0.625,0.009,0.016,0.012,0.037,1.873,0.041
,-0.08,0.28!,10,2
-0.034,0.625,0.010,0.016,0.012,0.036,1.873,0.040
,-0.07,0.28!,10,2
-0.034,0.625,0.009,0.016,0.012,0.036,1.871,0.041
,-0.05,0.27!,10,2
-0.034,0.625,0.009,0.016,0.012,0.037,1.874,0.041
,-0.05,0.26!,10,2
-0.034,0.625,0.009,0.015,0.012,0.035,1.872,0.040
,-0.06,0.25!,10,2
-0.034,0.625,0.011,0.014,0.012,0.035,1.871,0.040
,-0.06,0.25!,10,2
-0.034,0.625,0.010,0.014,0.012,0.036,1.873,0.040
,-0.05,0.23!,10,2
-0.034,0.625,0.010,0.014,0.013,0.035,1.869,0.040
,-0.02,0.24!,10,2
-0.034,0.625,0.010,0.014,0.012,0.034,1.871,0.040
,-0.01,0.25!,10,2
-0.034,0.625,0.012,0.015,0.013,0.033,1.872,0.040
,-0.02,0.25!,10,2
-0.034,0.625,0.011,0.015,0.013,0.032,1.870,0.039
,-0.02,0.23!,10,2
-0.034,0.625,0.011,0.015,0.012,0.033,1.873,0.039
,-0.00,0.21!,10,2
-0.034,0.625,0.011,0.016,0.012,0.033,1.872,0.038
,-0.01,0.20!,10,2
-0.034,0.625,0.011,0.016,0.012,0.032,1.870,0.038
,-0.03,0.20!,10,2
-0.034,0.625,0.012,0.018,0.013,0.033,1.874,0.038
,-0.04,0.21!,10,2
-0.034,0.625,0.010,0.017,0.014,0.033,1.872,0.038
,-0.06,0.21!,10,2
-0.034,0.625,0.011,0.018,0.011,0.033,1.872,0.038
,-0.08,0.22!,10,2
-0.034,0.625,0.011,0.017,0.011,0.033,1.874,0.037
,-0.09,0.22!,10,2
-0.034,0.625,0.011,0.017,0.011,0.033,1.872,0.037
,-0.08,0.21!,10,2
-0.034,0.625,0.010,0.017,0.011,0.033,1.874,0.037
,-0.06,0.21!,10,2
-0.034,0.625,0.011,0.017,0.011,0.034,1.875,0.036
,-0.05,0.21!,10,2
-0.034,0.625,0.011,0.017,0.011,0.033,1.871,0.036
,-0.06,0.22!,10,2
-0.034,0.625,0.011,0.017,0.011,0.034,1.875,0.037
,-0.06,0.23!,10,2
-0.034,0.625,0.011,0.017,0.011,0.034,1.873,0.038
,-0.05,0.23!,10,2
-0.034,0.625,0.012,0.016,0.011,0.035,1.871,0.038
,-0.05,0.23!,10,2
-0.034,0.625,0.012,0.018,0.010,0.033,1.875,0.038
,-0.04,0.24!,10,2
-0.034,0.625,0.011,0.019,0.011,0.034,1.873,0.039
,-0.03,0.24!,10,2
-0.034,0.625,0.012,0.019,0.010,0.035,1.874,0.040
,-0.03,0.24!,10,2
-0.034,0.625,0.012,0.019,0.010,0.035,1.876,0.041
,-0.05,0.24!,10,2
-0.034,0.625,0.012,0.019,0.010,0.036,1.872,0.040
,-0.05,0.23!,10,2
-0.034,0.625,0.011,0.020,0.010,0.036,1.874,0.040
,-0.05,0.24!,10,2
-0.034,0.625,0.011,0.021,0.010,0.036,1.875,0.042
,-0.05,0.24!,10,2
-0.034,0.625,0.011,0.021,0.010,0.035,1.871,0.041
,-0.07,0.25!,10,2
-0.034,0.625,0.012,0.020,0.010,0.035,1.875,0.042
,-0.08,0.25!,10,2
-0.034,0.625,0.010,0.020,0.010,0.033,1.874,0.041
,-0.08,0.24!,10,2
-0.034,0.625,0.010,0.019,0.010,0.033,1.872,0.042
,-0.07,0.22!,10,2
-0.034,0.625,0.010,0.018,0.010,0.033,1.875,0.041
,-0.07,0.21!,10,2
-0.034,0.625,0.010,0.017,0.011,0.032,1.872,0.041
,-0.08,0.20!,10,2
-0.034,0.625,0.012,0.017,0.011,0.031,1.873,0.040
,-0.07,0.21!,10,2
-0.034,0.625,0.011,0.016,0.011,0.030,1.875,0.041
,-0.07,0.20!,10,2
-0.034,0.625,0.011,0.014,0.011,0.031,1.872,0.041
,-0.06,0.19!,10,2
-0.034,0.625,0.011,0.013,0.010,0.034,1.874,0.041
,-0.04,0.18!,10,2
-0.034,0.625,0.011,0.014,0.010,0.034,1.875,0.041
,-0.02,0.19!,10,2
-0.034,0.625,0.011,0.014,0.010,0.035,1.871,0.039
,-0.01,0.20!,10,2
-0.034,0.625,0.013,0.014,0.012,0.034,1.875,0.040
,-0.01,0.22!,10,2
-0.034,0.625,0.013,0.014,0.011,0.035,1.873,0.042
,-0.01,0.23!,10,2
-0.034,0.625,0.013,0.014,0.012,0.036,1.872,0.042
,-0.01,0.22!,10,2
-0.034,0.625,0.012,0.015,0.011,0.036,1.874,0.041
,0.01,0.23!,10,2
-0.034,0.625,0.010,0.016,0.012,0.037,1.872,0.042
,0.01,0.25!,10,2
-0.034,0.625,0.011,0.018,0.012,0.038,1.872,0.041
,-0.01,0.26!,10,2
-0.034,0.625,0.011,0.018,0.012,0.037,1.874,0.041
,-0.03,0.27!,10,2
-0.034,0.625,0.011,0.020,0.013,0.035,1.869,0.038
,-0.05,0.27!,10,2
-0.034,0.625,0.011,0.019,0.013,0.036,1.871,0.037
,-0.06,0.27!,10,2
-0.034,0.625,0.012,0.020,0.013,0.035,1.873,0.037
,-0.07,0.26!,10,2
-0.034,0.625,0.010,0.020,0.013,0.036,1.870,0.038
,-0.07,0.26!,10,2
-0.034,0.625,0.010,0.020,0.014,0.035,1.874,0.036
,-0.06,0.26!,10,2
-0.034,0.625,0.010,0.021,0.012,0.033,1.873,0.035
,-0.08,0.26!,10,2
-0.034,0.625,0.010,0.020,0.013,0.034,1.872,0.035
,-0.10,0.24!,10,2
-0.034,0.625,0.010,0.019,0.013,0.033,1.876,0.035
,-0.11,0.21!,10,2
-0.034,0.625,0.011,0.018,0.014,0.034,1.874,0.035
,-0.11,0.20!,10,2
-0.034,0.625,0.011,0.017,0.014,0.035,1.874,0.036
,-0.09,0.20!,10,2
