-31.415,-0.041,4539632.000,0.376,0.000,-0.004,-1.930
-31.324,-0.170,5.000,0.375,0.000,-0.004,-8.098
-30.865,-0.348,5.000,0.375,0.000,-0.004,-16.518
-30.624,-0.501,5.000,0.376,0.000,-0.004,-23.790
-30.344,-0.604,5.000,0.376,0.000,-0.004,-28.687
-30.208,-0.658,5.000,0.376,0.000,-0.004,-31.269
-29.932,-0.677,5.000,0.376,0.000,-0.004,-32.136
-29.781,-0.673,5.000,0.376,0.000,-0.004,-31.978
-29.427,-0.660,5.000,0.377,0.000,-0.004,-31.346
-29.329,-0.644,5.000,0.376,0.000,-0.004,-30.601
-29.195,-0.630,5.000,0.376,0.000,-0.004,-29.947
-29.037,-0.620,5.000,0.376,0.000,-0.004,-29.462
-28.885,-0.613,5.000,0.376,0.000,-0.004,-29.134
-28.782,-0.609,5.000,0.376,0.000,-0.004,-28.922
-28.639,-0.606,5.000,0.376,0.000,-0.004,-28.783
-28.600,-0.604,5.000,0.376,0.000,-0.004,-28.684
-28.593,-0.602,5.000,0.376,0.000,-0.004,-28.614
-28.415,-0.601,5.000,0.376,0.000,-0.004,-28.559
-28.276,-0.600,5.000,0.376,0.000,-0.004,-28.493
-28.138,-0.598,5.000,0.376,0.000,-0.004,-28.403
-28.019,-0.596,5.000,0.377,0.000,-0.004,-28.291
-27.875,-0.593,5.000,0.376,0.000,-0.004,-28.165
-27.809,-0.590,5.000,0.376,0.000,-0.004,-28.034
-27.707,-0.588,5.000,0.377,0.000,-0.004,-27.911
-27.631,-0.585,5.000,0.377,0.000,-0.004,-27.800
-27.469,-0.583,5.000,0.376,0.000,-0.004,-27.696
-27.423,-0.581,5.000,0.378,0.000,-0.004,-27.593
-27.274,-0.579,5.000,0.377,0.000,-0.004,-27.491
-27.341,-0.577,5.000,0.377,0.000,-0.004,-27.398
-27.152,-0.575,5.000,0.377,0.000,-0.004,-27.320
-26.997,-0.573,5.000,0.377,0.000,-0.004,-27.238
-26.866,-0.571,5.000,0.377,0.000,-0.004,-27.136
-26.763,-0.569,5.000,0.377,0.000,-0.004,-27.018
-26.621,-0.566,5.000,0.378,0.000,-0.004,-26.894
-26.527,-0.564,5.000,0.378,0.000,-0.004,-26.767
-26.244,-0.561,5.000,0.377,0.000,-0.004,-26.632
-25.930,-0.557,5.000,0.377,0.000,-0.004,-26.468
-25.818,-0.553,5.000,0.377,0.000,-0.004,-26.267
-25.634,-0.549,5.000,0.378,0.000,-0.004,-26.056
-25.481,-0.544,5.000,0.378,0.000,-0.004,-25.853
-25.272,-0.540,5.000,0.378,0.000,-0.004,-25.661
-25.150,-0.536,5.000,0.378,0.000,-0.004,-25.478
-24.984,-0.533,5.000,0.380,0.000,-0.004,-25.306
-24.846,-0.529,5.000,0.380,0.000,-0.004,-25.145
-24.714,-0.526,5.000,0.378,0.000,-0.004,-24.994
-24.576,-0.523,5.000,0.380,0.000,-0.004,-24.850
-24.365,-0.520,5.000,0.380,0.000,-0.004,-24.708
-24.272,-0.517,5.000,0.380,0.000,-0.004,-24.560
-24.144,-0.514,5.000,0.380,0.000,-0.004,-24.415
-24.019,-0.511,5.000,0.380,0.000,-0.004,-24.277
-23.935,-0.508,5.000,0.380,0.000,-0.004,-24.148
-23.750,-0.506,5.000,0.380,0.000,-0.004,-24.026
-23.599,-0.503,5.000,0.380,0.000,-0.004,-23.899
-23.480,-0.500,5.000,0.381,0.000,-0.004,-23.764
-23.297,-0.497,5.000,0.380,0.000,-0.004,-23.624
-23.205,-0.494,5.000,0.380,0.000,-0.004,-23.480
-23.100,-0.491,5.000,0.380,0.000,-0.004,-23.341
-22.880,-0.489,5.000,0.378,0.000,-0.004,-23.207
-22.807,-0.486,5.000,0.381,0.000,-0.004,-23.069
-22.673,-0.483,5.000,0.380,0.000,-0.004,-22.933
-22.604,-0.480,5.000,0.381,0.000,-0.004,-22.807
-22.463,-0.478,5.000,0.380,0.000,-0.004,-22.690
-22.337,-0.475,5.000,0.380,0.000,-0.004,-22.577
-22.230,-0.473,5.000,0.400,0.000,-0.004,-22.462
-22.090,-0.470,5.000,0.380,0.000,-0.004,-22.346
-21.978,-0.468,5.000,0.380,0.000,-0.004,-22.227
-21.926,-0.465,5.000,0.380,0.000,-0.004,-22.110
-21.731,-0.463,5.000,0.380,0.000,-0.004,-21.998
-21.568,-0.461,5.000,0.380,0.000,-0.004,-21.879
-21.265,-0.458,5.000,0.364,0.000,-0.004,-21.734
-21.005,-0.454,5.000,0.380,0.000,-0.004,-21.552
-20.717,-0.449,5.000,0.380,0.000,-0.004,-21.328
-20.566,-0.444,5.000,0.380,0.000,-0.004,-21.081
-20.268,-0.439,5.000,0.380,0.000,-0.004,-20.830
-20.118,-0.433,5.000,0.380,0.000,-0.004,-20.583
-19.968,-0.429,5.000,0.388,0.000,-0.004,-20.354
-19.872,-0.424,5.000,0.380,0.000,-0.004,-20.155
-19.754,-0.421,5.000,0.381,0.000,-0.004,-19.990
-19.641,-0.418,5.000,0.380,0.000,-0.004,-19.853
-19.512,-0.415,5.000,0.380,0.000,-0.004,-19.734
-19.386,-0.413,5.000,0.380,0.000,-0.004,-19.621
-19.270,-0.411,5.000,0.376,0.000,-0.004,-19.508
-19.142,-0.408,5.000,0.380,0.000,-0.004,-19.394
-19.045,-0.406,5.000,0.380,0.000,-0.004,-19.277
-18.937,-0.403,5.000,0.380,0.000,-0.004,-19.162
-18.818,-0.401,5.000,0.380,0.000,-0.004,-19.050
-18.691,-0.399,5.000,0.380,0.000,-0.004,-18.937
-18.552,-0.396,5.000,0.381,0.000,-0.004,-18.820
-18.406,-0.394,5.000,0.380,0.000,-0.004,-18.697
-18.415,-0.391,5.000,0.380,0.000,-0.004,-18.575
-18.393,-0.389,5.000,0.380,0.000,-0.004,-18.474
-18.503,-0.388,5.000,0.380,0.000,-0.004,-18.412
-18.357,-0.387,5.000,0.380,0.000,-0.004,-18.386
-18.428,-0.387,5.000,0.381,0.000,-0.004,-18.376
-18.388,-0.387,5.000,0.380,0.000,-0.004,-18.372
-18.519,-0.387,5.000,0.380,0.000,-0.004,-18.379
-18.417,-0.387,5.000,0.380,0.000,-0.004,-18.398
-18.448,-0.388,5.000,0.380,0.000,-0.004,-18.413
-18.457,-0.388,5.000,0.380,0.000,-0.004,-18.422
-18.408,-0.388,5.000,0.380,0.000,-0.004,-18.426
-18.396,-0.388,5.000,0.381,0.000,-0.004,-18.420
-18.302,-0.387,5.000,0.380,0.000,-0.004,-18.401
-18.222,-0.387,5.000,0.380,0.000,-0.004,-18.364
-18.107,-0.385,5.000,0.380,0.000,-0.004,-18.306
-18.014,-0.384,5.000,0.380,0.000,-0.004,-18.227
-17.937,-0.382,5.000,0.380,0.000,-0.004,-18.136
-17.869,-0.380,5.000,0.378,0.000,-0.004,-18.042
-17.834,-0.378,5.000,0.378,0.000,-0.004,-17.954
-17.820,-0.376,5.000,0.378,0.000,-0.004,-17.882
-17.799,-0.375,5.000,0.380,0.000,-0.004,-17.829
-17.670,-0.374,5.000,0.380,0.000,-0.004,-17.787
-17.657,-0.374,5.000,0.378,0.000,-0.004,-17.741
-17.633,-0.373,5.000,0.378,0.000,-0.004,-17.695
-17.649,-0.372,5.000,0.378,0.000,-0.004,-17.656
-17.558,-0.371,5.000,0.378,0.000,-0.004,-17.626
-17.336,-0.370,5.000,0.378,0.000,-0.004,-17.583
-17.268,-0.369,5.000,0.378,0.000,-0.004,-17.508
-17.094,-0.366,5.000,0.380,0.000,-0.004,-17.404
-16.913,-0.364,5.000,0.378,0.000,-0.004,-17.276
-16.807,-0.361,5.000,0.378,0.000,-0.004,-17.130
-16.654,-0.357,5.000,0.380,0.000,-0.004,-16.978
-16.564,-0.354,5.000,0.378,0.000,-0.004,-16.830
-16.480,-0.351,5.000,0.377,0.000,-0.004,-16.695
-16.438,-0.349,5.000,0.377,0.000,-0.004,-16.580
-16.378,-0.347,5.000,0.378,0.000,-0.004,-16.488
-16.300,-0.346,5.000,0.378,0.000,-0.004,-16.415
-16.168,-0.344,5.000,0.378,0.000,-0.004,-16.346
-16.058,-0.342,5.000,0.378,0.000,-0.004,-16.268
-15.997,-0.341,5.000,0.378,0.000,-0.004,-16.181
-15.902,-0.339,5.000,0.378,0.000,-0.004,-16.090
-15.856,-0.337,5.000,0.378,0.000,-0.004,-16.002
-15.657,-0.335,5.000,0.380,0.000,-0.004,-15.913
-15.592,-0.333,5.000,0.378,0.000,-0.004,-15.814
-15.478,-0.331,5.000,0.378,0.000,-0.004,-15.708
-15.401,-0.328,5.000,0.380,0.000,-0.004,-15.603
-15.352,-0.326,5.000,0.378,0.000,-0.004,-15.503
-15.250,-0.325,5.000,0.358,0.000,-0.004,-15.414
-15.171,-0.323,5.000,0.378,0.000,-0.004,-15.332
-14.998,-0.321,5.000,0.380,0.000,-0.004,-15.245
-14.971,-0.319,5.000,0.378,0.000,-0.004,-15.151
-14.900,-0.317,5.000,0.377,0.000,-0.004,-15.058
-14.836,-0.315,5.000,0.378,0.000,-0.004,-14.974
-14.773,-0.314,5.000,0.397,0.000,-0.004,-14.898
-14.348,-0.312,5.000,0.377,0.000,-0.004,-14.808
-14.270,-0.309,5.000,0.378,0.000,-0.004,-14.672
-14.208,-0.305,5.000,0.377,0.000,-0.004,-14.509
-13.851,-0.302,5.000,0.378,0.000,-0.004,-14.341
-13.795,-0.298,5.000,0.377,0.000,-0.004,-14.160
-13.636,-0.294,5.000,0.369,0.000,-0.004,-13.980
-13.455,-0.291,5.000,0.378,0.000,-0.004,-13.810
-13.370,-0.287,5.000,0.378,0.000,-0.004,-13.650
-13.297,-0.284,5.000,0.377,0.000,-0.004,-13.506
-13.218,-0.282,5.000,0.377,0.000,-0.004,-13.387
-13.103,-0.280,5.000,0.378,0.000,-0.004,-13.287
-13.036,-0.278,5.000,0.383,0.000,-0.004,-13.196
-12.949,-0.276,5.000,0.377,0.000,-0.004,-13.112
-12.867,-0.274,5.000,0.378,0.000,-0.004,-13.031
-12.789,-0.273,5.000,0.377,0.000,-0.004,-12.951
-12.789,-0.271,5.000,0.378,0.000,-0.004,-12.877
-12.596,-0.270,5.000,0.377,0.000,-0.004,-12.807
-12.509,-0.268,5.000,0.375,0.000,-0.004,-12.727
-12.392,-0.266,5.000,0.378,0.000,-0.004,-12.632
-12.296,-0.264,5.000,0.377,0.000,-0.004,-12.529
-12.409,-0.262,5.000,0.378,0.000,-0.004,-12.435
-12.252,-0.260,5.000,0.377,0.000,-0.004,-12.367
-12.171,-0.259,5.000,0.377,0.000,-0.004,-12.310
-12.327,-0.258,5.000,0.377,0.000,-0.004,-12.261
-12.339,-0.258,5.000,0.377,0.000,-0.004,-12.244
-12.356,-0.258,5.000,0.377,0.000,-0.004,-12.256
-12.388,-0.259,5.000,0.377,0.000,-0.004,-12.283
-12.496,-0.259,5.000,0.377,0.000,-0.004,-12.322
-12.431,-0.260,5.000,0.377,0.000,-0.004,-12.368
-12.486,-0.261,5.000,0.378,0.000,-0.004,-12.408
-12.419,-0.262,5.000,0.377,0.000,-0.004,-12.434
-12.318,-0.262,5.000,0.377,0.000,-0.004,-12.436
-12.292,-0.261,5.000,0.377,0.000,-0.004,-12.409
-12.226,-0.260,5.000,0.377,0.000,-0.004,-12.362
-12.150,-0.259,5.000,0.377,0.000,-0.004,-12.304
-12.075,-0.258,5.000,0.377,0.000,-0.004,-12.237
-12.115,-0.256,5.000,0.377,0.000,-0.004,-12.171
-12.080,-0.255,5.000,0.377,0.000,-0.004,-12.120
-12.090,-0.254,5.000,0.377,0.000,-0.004,-12.087
-12.045,-0.254,5.000,0.377,0.000,-0.004,-12.066
-12.032,-0.254,5.000,0.376,0.000,-0.004,-12.050
-12.087,-0.253,5.000,0.377,0.000,-0.004,-12.040
-12.105,-0.253,5.000,0.377,0.000,-0.004,-12.041
-12.041,-0.254,5.000,0.377,0.000,-0.004,-12.049
-11.944,-0.254,5.000,0.377,0.000,-0.004,-12.045
-11.879,-0.253,5.000,0.377,0.000,-0.004,-12.017
-11.830,-0.252,5.000,0.377,0.000,-0.004,-11.968
-11.594,-0.250,5.000,0.377,0.000,-0.004,-11.898
-11.548,-0.248,5.000,0.377,0.000,-0.004,-11.800
-11.365,-0.246,5.000,0.377,0.000,-0.004,-11.683
-11.344,-0.243,5.000,0.377,0.000,-0.004,-11.559
-11.347,-0.241,5.000,0.377,0.000,-0.004,-11.450
-11.210,-0.239,5.000,0.377,0.000,-0.004,-11.364
-11.184,-0.238,5.000,0.378,0.000,-0.004,-11.292
-11.142,-0.236,5.000,0.377,0.000,-0.004,-11.229
-11.100,-0.235,5.000,0.377,0.000,-0.004,-11.177
-11.047,-0.234,5.000,0.377,0.000,-0.004,-11.131
-10.971,-0.233,5.000,0.377,0.000,-0.004,-11.085
-10.888,-0.232,5.000,0.377,0.000,-0.004,-11.033
-10.819,-0.231,5.000,0.377,0.000,-0.004,-10.972
-10.688,-0.229,5.000,0.376,0.000,-0.004,-10.901
-10.691,-0.228,5.000,0.377,0.000,-0.004,-10.822
-10.494,-0.226,5.000,0.377,0.000,-0.004,-10.739
-10.390,-0.224,5.000,0.377,0.000,-0.004,-10.645
-10.382,-0.222,5.000,0.377,0.000,-0.004,-10.543
-10.304,-0.220,5.000,0.378,0.000,-0.004,-10.451
-10.255,-0.218,5.000,0.399,0.000,-0.004,-10.373
-10.242,-0.217,5.000,0.377,0.000,-0.004,-10.309
-10.156,-0.216,5.000,0.377,0.000,-0.004,-10.256
-10.065,-0.215,5.000,0.378,0.000,-0.004,-10.205
-9.796,-0.213,5.000,0.378,0.000,-0.004,-10.134
-9.480,-0.211,5.000,0.377,0.000,-0.004,-10.014
-9.305,-0.207,5.000,0.369,0.000,-0.004,-9.835
-9.086,-0.203,5.000,0.377,0.000,-0.004,-9.620
-9.033,-0.198,5.000,0.377,0.000,-0.004,-9.401
-8.992,-0.194,5.000,0.377,0.000,-0.004,-9.211
-8.856,-0.191,5.000,0.378,0.000,-0.004,-9.065
-8.824,-0.188,5.000,0.378,0.000,-0.004,-8.952
-8.749,-0.187,5.000,0.383,0.000,-0.004,-8.866
-8.659,-0.185,5.000,0.377,0.000,-0.004,-8.795
-8.625,-0.184,5.000,0.377,0.000,-0.004,-8.731
-8.591,-0.183,5.000,0.377,0.000,-0.004,-8.674
-8.563,-0.182,5.000,0.377,0.000,-0.004,-8.627
-8.509,-0.181,5.000,0.377,0.000,-0.004,-8.586
-8.420,-0.180,5.000,0.376,0.000,-0.004,-8.544
-8.352,-0.179,5.000,0.378,0.000,-0.004,-8.494
-8.293,-0.178,5.000,0.377,0.000,-0.004,-8.435
-8.248,-0.176,5.000,0.377,0.000,-0.004,-8.373
-8.153,-0.175,5.000,0.377,0.000,-0.004,-8.309
-8.101,-0.174,5.000,0.380,0.000,-0.004,-8.242
-8.126,-0.172,5.000,0.378,0.000,-0.004,-8.181
-8.301,-0.172,5.000,0.378,0.000,-0.004,-8.147
-8.549,-0.172,5.000,0.378,0.000,-0.004,-8.172
-8.633,-0.174,5.000,0.378,0.000,-0.004,-8.263
-8.730,-0.177,5.000,0.378,0.000,-0.004,-8.393
-8.657,-0.179,5.000,0.378,0.000,-0.004,-8.521
-8.720,-0.181,5.000,0.378,0.000,-0.004,-8.617
-8.669,-0.183,5.000,0.378,0.000,-0.004,-8.675
-8.652,-0.183,5.000,0.378,0.000,-0.004,-8.699
-8.667,-0.183,5.000,0.378,0.000,-0.004,-8.698
-8.625,-0.183,5.000,0.378,0.000,-0.004,-8.684
-8.506,-0.182,5.000,0.378,0.000,-0.004,-8.656
-8.456,-0.181,5.000,0.377,0.000,-0.004,-8.608
-8.446,-0.180,5.000,0.378,0.000,-0.004,-8.550
-8.448,-0.179,5.000,0.378,0.000,-0.004,-8.497
-8.422,-0.178,5.000,0.378,0.000,-0.004,-8.457
-8.395,-0.177,5.000,0.378,0.000,-0.004,-8.428
-8.360,-0.177,5.000,0.378,0.000,-0.004,-8.404
-8.438,-0.177,5.000,0.380,0.000,-0.004,-8.388
-8.416,-0.177,5.000,0.378,0.000,-0.004,-8.384
-8.428,-0.177,5.000,0.378,0.000,-0.004,-8.390
-8.382,-0.177,5.000,0.378,0.000,-0.004,-8.396
-8.206,-0.177,5.000,0.378,0.000,-0.004,-8.385
-8.188,-0.176,5.000,0.378,0.000,-0.004,-8.343
-7.998,-0.174,5.000,0.378,0.000,-0.004,-8.274
-7.963,-0.172,5.000,0.378,0.000,-0.004,-8.182
-7.915,-0.170,5.000,0.378,0.000,-0.004,-8.085
-7.843,-0.168,5.000,0.378,0.000,-0.004,-7.996
-7.835,-0.167,5.000,0.378,0.000,-0.004,-7.921
-7.789,-0.166,5.000,0.378,0.000,-0.004,-7.862
-7.741,-0.165,5.000,0.378,0.000,-0.004,-7.815
-7.783,-0.164,5.000,0.378,0.000,-0.004,-7.780
-7.716,-0.163,5.000,0.380,0.000,-0.004,-7.756
-7.661,-0.163,5.000,0.378,0.000,-0.004,-7.734
-7.641,-0.162,5.000,0.378,0.000,-0.004,-7.706
-7.618,-0.162,5.000,0.378,0.000,-0.004,-7.676
-7.595,-0.161,5.000,0.377,0.000,-0.004,-7.646
-7.532,-0.160,5.000,0.359,0.000,-0.004,-7.615
-7.520,-0.160,5.000,0.378,0.000,-0.004,-7.583
-7.471,-0.159,5.000,0.378,0.000,-0.004,-7.548
-7.461,-0.158,5.000,0.378,0.000,-0.004,-7.514
-7.457,-0.158,5.000,0.378,0.000,-0.004,-7.484
-7.429,-0.157,5.000,0.380,0.000,-0.004,-7.461
-7.372,-0.157,5.000,0.403,0.000,-0.004,-7.439
-7.131,-0.156,5.000,0.378,0.000,-0.004,-7.399
-7.086,-0.154,5.000,0.378,0.000,-0.004,-7.325
-7.072,-0.152,5.000,0.378,0.000,-0.004,-7.234
-6.778,-0.150,5.000,0.378,0.000,-0.004,-7.134
-6.636,-0.148,5.000,0.378,0.000,-0.004,-7.010
-6.524,-0.144,5.000,0.371,0.000,-0.004,-6.863
-6.491,-0.141,5.000,0.378,0.000,-0.004,-6.717
-6.457,-0.139,5.000,0.378,0.000,-0.004,-6.595
-6.452,-0.137,5.000,0.378,0.000,-0.004,-6.507
-6.408,-0.136,5.000,0.378,0.000,-0.004,-6.450
-6.379,-0.135,5.000,0.378,0.000,-0.004,-6.413
-6.328,-0.134,5.000,0.382,0.000,-0.004,-6.386
-6.304,-0.134,5.000,0.378,0.000,-0.004,-6.359
-6.219,-0.133,5.000,0.378,0.000,-0.004,-6.328
-6.153,-0.132,5.000,0.378,0.000,-0.004,-6.287
-6.181,-0.131,5.000,0.378,0.000,-0.004,-6.240
-6.087,-0.130,5.000,0.378,0.000,-0.004,-6.195
-6.004,-0.129,5.000,0.377,0.000,-0.004,-6.148
-5.893,-0.128,5.000,0.378,0.000,-0.004,-6.088
-5.813,-0.127,5.000,0.378,0.000,-0.004,-6.014
-5.915,-0.125,5.000,0.378,0.000,-0.004,-5.941
-5.871,-0.124,5.000,0.378,0.000,-0.004,-5.892
-5.843,-0.123,5.000,0.378,0.000,-0.004,-5.864
-6.043,-0.123,5.000,0.377,0.000,-0.004,-5.859
-6.249,-0.124,5.000,0.377,0.000,-0.004,-5.901
-6.326,-0.126,5.000,0.377,0.000,-0.004,-5.995
-6.332,-0.129,5.000,0.377,0.000,-0.004,-6.112
-6.383,-0.131,5.000,0.377,0.000,-0.004,-6.219
-6.324,-0.133,5.000,0.376,0.000,-0.004,-6.299
-6.298,-0.133,5.000,0.378,0.000,-0.004,-6.340
-6.254,-0.134,5.000,0.377,0.000,-0.004,-6.346
-6.172,-0.133,5.000,0.376,0.000,-0.004,-6.321
-6.159,-0.132,5.000,0.377,0.000,-0.004,-6.276
-6.215,-0.131,5.000,0.377,0.000,-0.004,-6.230
-6.179,-0.130,5.000,0.376,0.000,-0.004,-6.198
-6.138,-0.130,5.000,0.377,0.000,-0.004,-6.177
-6.156,-0.130,5.000,0.377,0.000,-0.004,-6.160
-6.226,-0.130,5.000,0.377,0.000,-0.004,-6.153
-6.337,-0.130,5.000,0.377,0.000,-0.004,-6.168
-6.423,-0.131,5.000,0.377,0.000,-0.004,-6.213
-6.407,-0.132,5.000,0.377,0.000,-0.004,-6.277
-6.407,-0.133,5.000,0.377,0.000,-0.004,-6.336
-6.337,-0.134,5.000,0.377,0.000,-0.004,-6.374
-6.328,-0.134,5.000,0.376,0.000,-0.004,-6.384
-6.194,-0.134,5.000,0.376,0.000,-0.004,-6.365
-6.174,-0.133,5.000,0.375,0.000,-0.004,-6.320
-6.122,-0.132,5.000,0.376,0.000,-0.004,-6.260
-5.996,-0.130,5.000,0.376,0.000,-0.004,-6.193
-6.000,-0.129,5.000,0.377,0.000,-0.004,-6.122
-5.987,-0.128,5.000,0.376,0.000,-0.004,-6.057
-5.972,-0.127,5.000,0.376,0.000,-0.004,-6.009
-6.064,-0.126,5.000,0.376,0.000,-0.004,-5.984
-5.955,-0.126,5.000,0.376,0.000,-0.004,-5.978
-5.867,-0.126,5.000,0.377,0.000,-0.004,-5.969
-5.894,-0.125,5.000,0.376,0.000,-0.004,-5.946
-5.828,-0.125,5.000,0.377,0.000,-0.004,-5.915
-5.824,-0.124,5.000,0.376,0.000,-0.004,-5.882
-5.764,-0.123,5.000,0.377,0.000,-0.004,-5.848
-5.667,-0.122,5.000,0.376,0.000,-0.004,-5.808
-5.656,-0.121,5.000,0.375,0.000,-0.004,-5.760
-5.601,-0.120,5.000,0.363,0.000,-0.004,-5.708
-5.604,-0.119,5.000,0.376,0.000,-0.004,-5.661
-5.606,-0.118,5.000,0.376,0.000,-0.004,-5.624
-5.546,-0.118,5.000,0.376,0.000,-0.004,-5.598
-5.499,-0.117,5.000,0.375,0.000,-0.004,-5.573
-5.479,-0.117,5.000,0.376,0.000,-0.004,-5.544
-5.445,-0.116,5.000,0.394,0.000,-0.004,-5.512
-5.328,-0.115,5.000,0.375,0.000,-0.004,-5.475
-5.133,-0.114,5.000,0.375,0.000,-0.004,-5.416
-5.092,-0.112,5.000,0.375,0.000,-0.004,-5.329
-4.855,-0.110,5.000,0.375,0.000,-0.004,-5.218
-4.698,-0.107,5.000,0.375,0.000,-0.004,-5.083
-4.699,-0.104,5.000,0.367,0.000,-0.004,-4.937
-4.745,-0.101,5.000,0.375,0.000,-0.004,-4.815
-4.637,-0.100,5.000,0.375,0.000,-0.004,-4.733
-4.634,-0.098,5.000,0.375,0.000,-0.004,-4.678
-4.592,-0.098,5.000,0.375,0.000,-0.004,-4.639
-4.543,-0.097,5.000,0.376,0.000,-0.004,-4.608
-4.549,-0.096,5.000,0.378,0.000,-0.004,-4.581
-4.490,-0.096,5.000,0.375,0.000,-0.004,-4.556
-4.462,-0.095,5.000,0.376,0.000,-0.004,-4.529
-4.428,-0.095,5.000,0.374,0.000,-0.004,-4.499
-4.321,-0.094,5.000,0.375,0.000,-0.004,-4.463
-4.245,-0.093,5.000,0.375,0.000,-0.004,-4.412
-4.210,-0.092,5.000,0.374,0.000,-0.004,-4.350
-4.106,-0.090,5.000,0.375,0.000,-0.004,-4.282
-4.057,-0.089,5.000,0.375,0.000,-0.004,-4.211
-4.075,-0.087,5.000,0.374,0.000,-0.004,-4.145
-4.133,-0.086,5.000,0.375,0.000,-0.004,-4.099
-4.117,-0.086,5.000,0.375,0.000,-0.004,-4.082
-4.416,-0.086,5.000,0.374,0.000,-0.004,-4.101
-4.618,-0.088,5.000,0.375,0.000,-0.004,-4.180
-4.543,-0.091,5.000,0.375,0.000,-0.004,-4.304
-4.501,-0.093,5.000,0.375,0.000,-0.004,-4.419
-4.488,-0.095,5.000,0.375,0.000,-0.004,-4.491
-4.347,-0.095,5.000,0.374,0.000,-0.004,-4.512
-4.345,-0.095,5.000,0.375,0.000,-0.004,-4.489
-4.337,-0.093,5.000,0.374,0.000,-0.004,-4.441
-4.308,-0.092,5.000,0.374,0.000,-0.004,-4.392
-4.284,-0.092,5.000,0.375,0.000,-0.004,-4.348
-4.229,-0.091,5.000,0.374,0.000,-0.004,-4.310
-4.213,-0.090,5.000,0.375,0.000,-0.004,-4.274
-4.327,-0.089,5.000,0.374,0.000,-0.004,-4.250
-4.327,-0.089,5.000,0.375,0.000,-0.004,-4.250
-4.350,-0.090,5.000,0.374,0.000,-0.004,-4.269
-4.374,-0.090,5.000,0.374,0.000,-0.004,-4.296
-4.387,-0.091,5.000,0.374,0.000,-0.004,-4.326
-4.367,-0.092,5.000,0.374,0.000,-0.004,-4.350
-4.309,-0.092,5.000,0.375,0.000,-0.004,-4.362
-4.289,-0.092,5.000,0.375,0.000,-0.004,-4.355
-4.098,-0.091,5.000,0.375,0.000,-0.004,-4.324
-3.999,-0.090,5.000,0.374,0.000,-0.004,-4.259
-3.979,-0.088,5.000,0.374,0.000,-0.004,-4.170
-3.950,-0.086,5.000,0.375,0.000,-0.004,-4.082
-3.952,-0.084,5.000,0.374,0.000,-0.004,-4.011
-3.989,-0.083,5.000,0.375,0.000,-0.004,-3.966
-3.953,-0.083,5.000,0.375,0.000,-0.004,-3.946
-3.916,-0.083,5.000,0.375,0.000,-0.004,-3.938
-3.923,-0.083,5.000,0.374,0.000,-0.004,-3.931
-3.884,-0.083,5.000,0.375,0.000,-0.004,-3.922
-3.894,-0.082,5.000,0.375,0.000,-0.004,-3.910
-3.806,-0.082,5.000,0.380,0.000,-0.004,-3.894
-3.791,-0.102,5.000,0.375,0.000,-0.004,-3.869
-3.807,-0.101,5.000,0.375,0.000,-0.004,-3.839
-3.735,-0.101,5.000,0.375,0.000,-0.004,-3.811
-3.765,-0.100,5.000,0.375,0.000,-0.004,-3.786
-3.692,-0.099,5.000,0.375,0.000,-0.004,-3.762
-3.707,-0.099,5.000,0.358,0.000,-0.004,-3.738
-3.727,-0.098,5.000,0.376,0.000,-0.004,-3.720
-3.752,-0.098,5.000,0.375,0.000,-0.004,-3.712
-3.730,-0.098,5.000,0.376,0.000,-0.004,-3.715
-3.528,-0.098,5.000,0.375,0.000,-0.004,-3.708
-3.250,-0.097,5.000,0.376,0.000,-0.004,-3.655
-3.052,-0.093,5.000,0.387,0.000,-0.004,-3.535
-3.040,-0.089,5.000,0.375,0.000,-0.004,-3.374
-3.018,-0.085,5.000,0.375,0.000,-0.004,-3.219
-2.992,-0.082,5.000,0.375,0.000,-0.004,-3.100
-2.927,-0.080,5.000,0.375,0.000,-0.004,-3.017
-2.886,-0.078,5.000,0.375,0.000,-0.004,-2.959
-2.877,-0.077,5.000,0.372,0.000,-0.004,-2.916
-2.815,-0.076,5.000,0.375,0.000,-0.004,-2.884
-2.861,-0.076,5.000,0.375,0.000,-0.004,-2.858
-2.760,-0.075,5.000,0.375,0.000,-0.004,-2.838
-2.737,-0.074,5.000,0.375,0.000,-0.004,-2.814
-2.711,-0.074,5.000,0.376,0.000,-0.004,-2.783
-2.658,-0.073,5.000,0.376,0.000,-0.004,-2.749
-2.626,-0.072,5.000,0.375,0.000,-0.004,-2.713
-2.527,-0.071,5.000,0.376,0.000,-0.004,-2.670
-2.480,-0.069,5.000,0.375,0.000,-0.004,-2.618
-2.518,-0.068,5.000,0.375,0.000,-0.004,-2.566
-2.632,-0.067,5.000,0.375,0.000,-0.004,-2.535
-2.823,-0.067,5.000,0.376,0.000,-0.004,-2.549
-3.037,-0.069,5.000,0.375,0.000,-0.004,-2.623
-3.292,-0.073,5.000,0.375,0.000,-0.004,-2.760
-3.227,-0.077,5.000,0.376,0.000,-0.004,-2.931
-3.268,-0.082,5.000,0.375,0.000,-0.004,-3.085
-3.222,-0.084,5.000,0.375,0.000,-0.004,-3.193
-3.285,-0.086,5.000,0.374,0.000,-0.004,-3.253
-3.269,-0.087,5.000,0.376,0.000,-0.004,-3.282
-3.213,-0.087,5.000,0.375,0.000,-0.004,-3.288
-3.236,-0.087,5.000,0.376,0.000,-0.004,-3.276
-3.230,-0.086,5.000,0.375,0.000,-0.004,-3.258
-3.255,-0.086,5.000,0.375,0.000,-0.004,-3.245
-3.288,-0.086,5.000,0.376,0.000,-0.004,-3.241
-3.303,-0.086,5.000,0.375,0.000,-0.004,-3.248
-3.271,-0.086,5.000,0.375,0.000,-0.004,-3.262
-3.318,-0.086,5.000,0.375,0.000,-0.004,-3.274
-3.356,-0.087,5.000,0.376,0.000,-0.004,-3.288
-3.371,-0.087,5.000,0.375,0.000,-0.004,-3.309
-3.344,-0.088,5.000,0.374,0.000,-0.004,-3.330
-3.196,-0.088,5.000,0.375,0.000,-0.004,-3.335
-3.096,-0.087,5.000,0.375,0.000,-0.004,-3.305
-3.038,-0.086,5.000,0.375,0.000,-0.004,-3.242
-2.950,-0.084,5.000,0.375,0.000,-0.004,-3.161
-2.973,-0.081,5.000,0.375,0.000,-0.004,-3.079
-2.904,-0.080,5.000,0.375,0.000,-0.004,-3.010
-2.910,-0.078,5.000,0.375,0.000,-0.004,-2.957
-2.912,-0.077,5.000,0.375,0.000,-0.004,-2.921
-2.921,-0.077,5.000,0.374,0.000,-0.004,-2.902
-2.955,-0.077,5.000,0.375,0.000,-0.004,-2.899
-2.842,-0.077,5.000,0.375,0.000,-0.004,-2.902
-2.865,-0.077,5.000,0.374,0.000,-0.004,-2.896
-2.829,-0.076,5.000,0.354,0.000,-0.004,-2.881
-2.808,-0.076,5.000,0.375,0.000,-0.004,-2.862
-2.783,-0.075,5.000,0.375,0.000,-0.004,-2.839
-2.818,-0.074,5.000,0.375,0.000,-0.004,-2.818
-2.764,-0.074,5.000,0.375,0.000,-0.004,-2.803
-2.687,-0.074,5.000,0.375,0.000,-0.004,-2.784
-2.609,-0.073,5.000,0.391,0.000,-0.004,-2.751
-2.449,-0.071,5.000,0.375,0.000,-0.004,-2.696
-2.229,-0.069,5.000,0.375,0.000,-0.004,-2.606
-2.215,-0.066,5.000,0.374,0.000,-0.004,-2.485
-2.197,-0.062,5.000,0.374,0.000,-0.004,-2.364
-2.183,-0.060,5.000,0.375,0.000,-0.004,-2.269
-2.171,-0.058,5.000,0.369,0.000,-0.004,-2.205
-2.158,-0.057,5.000,0.374,0.000,-0.004,-2.168
-2.121,-0.057,5.000,0.374,0.000,-0.004,-2.147
-2.127,-0.056,5.000,0.375,0.000,-0.004,-2.133
-2.087,-0.056,5.000,0.374,0.000,-0.004,-2.122
-2.032,-0.056,5.000,0.375,0.000,-0.004,-2.107
-2.073,-0.055,5.000,0.376,0.000,-0.004,-2.087
-1.948,-0.055,5.000,0.375,0.000,-0.004,-2.064
-1.934,-0.054,5.000,0.374,0.000,-0.004,-2.032
-1.912,-0.053,5.000,0.374,0.000,-0.004,-1.992
-1.923,-0.052,5.000,0.374,0.000,-0.004,-1.956
-1.921,-0.051,5.000,0.374,0.000,-0.004,-1.931
-1.893,-0.051,5.000,0.374,0.000,-0.004,-1.915
-1.944,-0.050,5.000,0.374,0.000,-0.004,-1.907
-2.096,-0.051,5.000,0.374,0.000,-0.004,-1.918
-2.175,-0.052,5.000,0.374,0.000,-0.004,-1.962
-2.432,-0.054,5.000,0.374,0.000,-0.004,-2.044
-2.373,-0.057,5.000,0.374,0.000,-0.004,-2.156
-2.418,-0.060,5.000,0.372,0.000,-0.004,-2.265
-2.390,-0.062,5.000,0.372,0.000,-0.004,-2.345
-2.400,-0.063,5.000,0.374,0.000,-0.004,-2.394
-2.416,-0.064,5.000,0.372,0.000,-0.004,-2.417
-2.382,-0.064,5.000,0.372,0.000,-0.004,-2.423
-2.387,-0.064,5.000,0.372,0.000,-0.004,-2.417
-2.395,-0.064,5.000,0.374,0.000,-0.004,-2.407
-2.510,-0.064,5.000,0.374,0.000,-0.004,-2.405
-2.497,-0.064,5.000,0.372,0.000,-0.004,-2.422
-2.543,-0.065,5.000,0.372,0.000,-0.004,-2.450
-2.580,-0.066,5.000,0.374,0.000,-0.004,-2.485
-2.539,-0.067,5.000,0.374,0.000,-0.004,-2.518
-2.556,-0.067,5.000,0.372,0.000,-0.004,-2.540
-2.549,-0.067,5.000,0.372,0.000,-0.004,-2.552
-2.611,-0.068,5.000,0.372,0.000,-0.004,-2.560
-2.578,-0.068,5.000,0.372,0.000,-0.004,-2.569
-2.491,-0.068,5.000,0.374,0.000,-0.004,-2.571
-2.479,-0.068,5.000,0.372,0.000,-0.004,-2.557
-2.467,-0.067,5.000,0.372,0.000,-0.004,-2.530
-2.498,-0.066,5.000,0.372,0.000,-0.004,-2.505
-2.359,-0.066,5.000,0.374,0.000,-0.004,-2.481
-2.394,-0.065,5.000,0.372,0.000,-0.004,-2.450
-2.356,-0.064,5.000,0.372,0.000,-0.004,-2.418
-2.342,-0.063,5.000,0.374,0.000,-0.004,-2.389
-2.405,-0.063,5.000,0.372,0.000,-0.004,-2.369
-2.346,-0.062,5.000,0.360,0.000,-0.004,-2.361
-2.279,-0.062,5.000,0.374,0.000,-0.004,-2.352
-2.203,-0.062,5.000,0.374,0.000,-0.004,-2.329
-2.187,-0.061,5.000,0.374,0.000,-0.004,-2.291
-2.241,-0.060,5.000,0.374,0.000,-0.004,-2.252
-2.206,-0.059,5.000,0.374,0.000,-0.004,-2.226
-2.131,-0.058,5.000,0.391,0.000,-0.004,-2.206
-1.824,-0.057,5.000,0.374,0.000,-0.004,-2.164
-1.658,-0.055,5.000,0.374,0.000,-0.004,-2.070
-1.679,-0.051,5.000,0.374,0.000,-0.004,-1.938
-1.643,-0.048,5.000,0.374,0.000,-0.004,-1.812
-1.504,-0.045,5.000,0.372,0.000,-0.004,-1.707
-1.520,-0.043,5.000,0.367,0.000,-0.004,-1.620
-1.496,-0.041,5.000,0.374,0.000,-0.004,-1.554
-1.451,-0.040,5.000,0.374,0.000,-0.004,-1.508
-1.489,-0.039,5.000,0.374,0.000,-0.004,-1.479
-1.443,-0.039,5.000,0.374,0.000,-0.004,-1.462
-1.367,-0.038,5.000,0.374,0.000,-0.004,-1.448
-1.377,-0.038,5.000,0.376,0.000,-0.004,-1.427
-1.316,-0.037,5.000,0.374,0.000,-0.004,-1.400
-1.289,-0.036,5.000,0.374,0.000,-0.004,-1.370
-1.347,-0.035,5.000,0.374,0.000,-0.004,-1.341
-1.299,-0.035,5.000,0.374,0.000,-0.004,-1.323
-1.211,-0.035,5.000,0.372,0.000,-0.004,-1.306
-1.226,-0.034,5.000,0.372,0.000,-0.004,-1.281
-1.246,-0.033,5.000,0.374,0.000,-0.004,-1.256
-1.404,-0.033,5.000,0.374,0.000,-0.004,-1.251
-1.547,-0.034,5.000,0.372,0.000,-0.004,-1.285
-1.681,-0.036,5.000,0.374,0.000,-0.004,-1.363
-1.733,-0.039,5.000,0.374,0.000,-0.004,-1.471
-1.741,-0.042,5.000,0.372,0.000,-0.004,-1.580
-1.833,-0.044,5.000,0.374,0.000,-0.004,-1.672
-1.835,-0.046,5.000,0.374,0.000,-0.004,-1.747
-1.801,-0.048,5.000,0.372,0.000,-0.004,-1.799
-1.841,-0.048,5.000,0.374,0.000,-0.004,-1.827
-1.832,-0.049,5.000,0.372,0.000,-0.004,-1.839
-1.813,-0.049,5.000,0.374,0.000,-0.004,-1.842
-1.909,-0.049,5.000,0.372,0.000,-0.004,-1.842
-1.856,-0.049,5.000,0.372,0.000,-0.004,-1.849
-1.872,-0.049,5.000,0.372,0.000,-0.004,-1.858
-1.977,-0.049,5.000,0.372,0.000,-0.004,-1.870
-1.918,-0.050,5.000,0.374,0.000,-0.004,-1.891
-1.959,-0.051,5.000,0.371,0.000,-0.004,-1.913
-2.080,-0.051,5.000,0.372,0.000,-0.004,-1.938
-2.001,-0.052,5.000,0.372,0.000,-0.004,-1.971
-1.997,-0.053,5.000,0.372,0.000,-0.004,-1.997
-1.865,-0.053,5.000,0.372,0.000,-0.004,-2.000
-1.885,-0.052,5.000,0.372,0.000,-0.004,-1.977
-1.907,-0.051,5.000,0.372,0.000,-0.004,-1.944
-1.663,-0.050,5.000,0.372,0.000,-0.004,-1.903
-1.705,-0.049,5.000,0.372,0.000,-0.004,-1.843
-1.715,-0.047,5.000,0.372,0.000,-0.004,-1.780
-1.671,-0.046,5.000,0.371,0.000,-0.004,-1.732
-1.706,-0.045,5.000,0.372,0.000,-0.004,-1.700
-1.615,-0.044,5.000,0.371,0.000,-0.004,-1.679
-1.634,-0.044,5.000,0.359,0.000,-0.004,-1.661
-1.638,-0.043,5.000,0.372,0.000,-0.004,-1.644
-1.588,-0.043,5.000,0.372,0.000,-0.004,-1.632
-1.586,-0.043,5.000,0.372,0.000,-0.004,-1.618
-1.606,-0.042,5.000,0.372,0.000,-0.004,-1.605
-1.518,-0.042,5.000,0.372,0.000,-0.004,-1.592
-1.498,-0.042,5.000,0.393,0.000,-0.004,-1.572
-1.306,-0.041,5.000,0.372,0.000,-0.004,-1.534
-1.266,-0.039,5.000,0.372,0.000,-0.004,-1.470
-1.285,-0.037,5.000,0.372,0.000,-0.004,-1.394
-1.071,-0.035,5.000,0.372,0.000,-0.004,-1.319
-0.977,-0.033,5.000,0.372,0.000,-0.004,-1.232
-0.930,-0.030,5.000,0.365,0.000,-0.004,-1.133
-0.926,-0.028,5.000,0.371,0.000,-0.004,-1.042
-0.912,-0.026,5.000,0.372,0.000,-0.004,-0.972
-0.891,-0.024,5.000,0.372,0.000,-0.004,-0.925
-0.870,-0.024,5.000,0.371,0.000,-0.004,-0.896
-0.868,-0.023,5.000,0.372,0.000,-0.004,-0.878
-0.843,-0.023,5.000,0.375,0.000,-0.004,-0.865
-0.797,-0.023,5.000,0.371,0.000,-0.004,-0.853
-0.692,-0.022,5.000,0.371,0.000,-0.004,-0.830
-0.748,-0.021,5.000,0.371,0.000,-0.004,-0.795
-0.717,-0.020,5.000,0.372,0.000,-0.004,-0.763
-0.709,-0.020,5.000,0.371,0.000,-0.004,-0.738
-0.700,-0.019,5.000,0.371,0.000,-0.004,-0.720
-0.655,-0.019,5.000,0.371,0.000,-0.004,-0.704
-0.743,-0.018,5.000,0.371,0.000,-0.004,-0.693
-0.821,-0.018,5.000,0.371,0.000,-0.004,-0.700
-0.987,-0.019,5.000,0.371,0.000,-0.004,-0.738
-1.126,-0.022,5.000,0.371,0.000,-0.004,-0.814
-1.212,-0.024,5.000,0.370,0.000,-0.004,-0.921
-1.294,-0.027,5.000,0.371,0.000,-0.004,-1.040
-1.326,-0.030,5.000,0.371,0.000,-0.004,-1.151
-1.319,-0.033,5.000,0.370,0.000,-0.004,-1.241
-1.411,-0.035,5.000,0.371,0.000,-0.004,-1.306
-1.388,-0.036,5.000,0.370,0.000,-0.004,-1.353
-1.410,-0.037,5.000,0.372,0.000,-0.004,-1.385
-1.416,-0.037,5.000,0.371,0.000,-0.004,-1.404
-1.427,-0.037,5.000,0.371,0.000,-0.004,-1.415
-1.533,-0.038,5.000,0.372,0.000,-0.004,-1.429
-1.628,-0.039,5.000,0.371,0.000,-0.004,-1.459
-1.632,-0.040,5.000,0.372,0.000,-0.004,-1.508
-1.661,-0.041,5.000,0.371,0.000,-0.004,-1.561
-1.730,-0.043,5.000,0.371,0.000,-0.004,-1.612
-1.712,-0.044,5.000,0.371,0.000,-0.004,-1.657
-1.774,-0.045,5.000,0.371,0.000,-0.004,-1.695
-1.679,-0.045,5.000,0.371,0.000,-0.004,-1.721
-1.681,-0.046,5.000,0.371,0.000,-0.004,-1.728
-1.575,-0.045,5.000,0.371,0.000,-0.004,-1.712
-1.436,-0.044,5.000,0.370,0.000,-0.004,-1.669
-1.488,-0.042,5.000,0.371,0.000,-0.004,-1.604
-1.453,-0.041,5.000,0.371,0.000,-0.004,-1.541
-1.465,-0.039,5.000,0.372,0.000,-0.004,-1.493
-1.448,-0.039,5.000,0.372,0.000,-0.004,-1.463
-1.411,-0.038,5.000,0.371,0.000,-0.004,-1.445
-1.408,-0.038,5.000,0.370,0.000,-0.004,-1.430
-1.329,-0.037,5.000,0.371,0.000,-0.004,-1.413
-1.224,-0.037,5.000,0.371,0.000,-0.004,-1.383
-1.245,-0.035,5.000,0.371,0.000,-0.004,-1.338
-1.248,-0.034,5.000,0.372,0.000,-0.004,-1.293
-1.204,-0.033,5.000,0.372,0.000,-0.004,-1.259
-1.117,-0.032,5.000,0.391,0.000,-0.004,-1.228
-0.789,-0.031,5.000,0.372,0.000,-0.004,-1.171
-0.562,-0.028,5.000,0.371,0.000,-0.004,-1.058
-0.616,-0.024,5.000,0.372,0.000,-0.004,-0.903
-0.556,-0.020,5.000,0.374,0.000,-0.004,-0.756
-0.561,-0.017,5.000,0.372,0.000,-0.004,-0.646
-0.529,-0.015,5.000,0.366,0.000,-0.004,-0.574
-0.454,-0.014,5.000,0.372,0.000,-0.004,-0.528
-0.514,-0.013,5.000,0.372,0.000,-0.004,-0.497
-0.495,-0.013,5.000,0.374,0.000,-0.004,-0.483
-0.481,-0.013,5.000,0.374,0.000,-0.004,-0.480
-0.462,-0.013,5.000,0.374,0.000,-0.004,-0.478
-0.482,-0.013,5.000,0.376,0.000,-0.004,-0.476
-0.453,-0.013,5.000,0.374,0.000,-0.004,-0.473
-0.374,-0.012,5.000,0.374,0.000,-0.004,-0.464
-0.442,-0.012,5.000,0.374,0.000,-0.004,-0.446
-0.446,-0.011,5.000,0.374,0.000,-0.004,-0.434
-0.431,-0.011,5.000,0.374,0.000,-0.004,-0.430
-0.414,-0.011,5.000,0.374,0.000,-0.004,-0.428
-0.533,-0.011,5.000,0.374,0.000,-0.004,-0.432
-0.640,-0.012,5.000,0.374,0.000,-0.004,-0.458
-0.792,-0.014,5.000,0.375,0.000,-0.004,-0.516
-0.963,-0.016,5.000,0.375,0.000,-0.004,-0.611
-0.933,-0.019,5.000,0.375,0.000,-0.004,-0.727
-0.983,-0.022,5.000,0.374,0.000,-0.004,-0.834
-1.031,-0.024,5.000,0.375,0.000,-0.004,-0.918
-1.028,-0.026,5.000,0.375,0.000,-0.004,-0.979
-1.060,-0.027,5.000,0.375,0.000,-0.004,-1.021
-1.016,-0.028,5.000,0.376,0.000,-0.004,-1.044
-1.029,-0.028,5.000,0.376,0.000,-0.004,-1.050
-1.062,-0.028,5.000,0.376,0.000,-0.004,-1.049
-1.093,-0.028,5.000,0.376,0.000,-0.004,-1.051
-1.130,-0.028,5.000,0.376,0.000,-0.004,-1.062
-1.115,-0.029,5.000,0.376,0.000,-0.004,-1.080
-1.284,-0.029,5.000,0.375,0.000,-0.004,-1.108
-1.256,-0.030,5.000,0.376,0.000,-0.004,-1.151
-1.255,-0.032,5.000,0.375,0.000,-0.004,-1.197
-1.285,-0.033,5.000,0.376,0.000,-0.004,-1.233
-1.305,-0.033,5.000,0.377,0.000,-0.004,-1.261
-1.125,-0.034,5.000,0.377,0.000,-0.004,-1.272
-1.101,-0.033,5.000,0.377,0.000,-0.004,-1.249
-1.070,-0.032,5.000,0.377,0.000,-0.004,-1.202
-1.112,-0.030,5.000,0.378,0.000,-0.004,-1.153
-1.107,-0.030,5.000,0.377,0.000,-0.004,-1.118
-1.068,-0.029,5.000,0.377,0.000,-0.004,-1.097
-1.105,-0.029,5.000,0.378,0.000,-0.004,-1.085
-1.086,-0.029,5.000,0.377,0.000,-0.004,-1.081
-1.050,-0.029,5.000,0.377,0.000,-0.004,-1.079
-1.148,-0.028,5.000,0.377,0.000,-0.004,-1.079
-1.071,-0.029,5.000,0.356,0.000,-0.004,-1.085
-1.091,-0.029,5.000,0.377,0.000,-0.004,-1.089
-1.027,-0.029,5.000,0.377,0.000,-0.004,-1.086
-1.006,-0.028,5.000,0.377,0.000,-0.004,-1.073
-1.020,-0.028,5.000,0.377,0.000,-0.004,-1.052
-0.795,-0.027,5.000,0.377,0.000,-0.004,-1.020
-0.596,-0.025,5.000,0.391,0.000,-0.004,-0.952
-0.509,-0.022,5.000,0.378,0.000,-0.004,-0.841
-0.471,-0.019,5.000,0.377,0.000,-0.004,-0.713
-0.451,-0.016,5.000,0.376,0.000,-0.004,-0.597
-0.451,-0.014,5.000,0.377,0.000,-0.004,-0.511
-0.450,-0.012,5.000,0.377,0.000,-0.004,-0.458
-0.406,-0.011,5.000,0.374,0.000,-0.004,-0.430
-0.418,-0.011,5.000,0.376,0.000,-0.004,-0.414
-0.407,-0.011,5.000,0.377,0.000,-0.004,-0.407
-0.404,-0.011,5.000,0.377,0.000,-0.004,-0.404
-0.401,-0.011,5.000,0.377,0.000,-0.004,-0.403
-0.399,-0.011,5.000,0.377,0.000,-0.004,-0.402
-0.334,-0.010,5.000,0.378,0.000,-0.004,-0.396
-0.320,-0.010,5.000,0.376,0.000,-0.004,-0.382
-0.328,-0.010,5.000,0.376,0.000,-0.004,-0.361
-0.305,-0.009,5.000,0.376,0.000,-0.004,-0.342
-0.276,-0.009,5.000,0.376,0.000,-0.004,-0.324
-0.373,-0.008,5.000,0.376,0.000,-0.004,-0.312
-0.503,-0.009,5.000,0.376,0.000,-0.004,-0.323
-0.597,-0.010,5.000,0.375,0.000,-0.004,-0.370
-0.823,-0.012,5.000,0.376,0.000,-0.004,-0.455
-0.889,-0.015,5.000,0.376,0.000,-0.004,-0.573
-0.943,-0.019,5.000,0.376,0.000,-0.004,-0.702
-0.951,-0.022,5.000,0.376,0.000,-0.004,-0.816
-0.968,-0.024,5.000,0.375,0.000,-0.004,-0.900
-0.914,-0.025,5.000,0.376,0.000,-0.004,-0.949
-0.920,-0.026,5.000,0.376,0.000,-0.004,-0.966
-0.956,-0.025,5.000,0.376,0.000,-0.004,-0.964
-0.926,-0.025,5.000,0.376,0.000,-0.004,-0.957
-1.002,-0.025,5.000,0.375,0.000,-0.004,-0.952
-0.982,-0.025,5.000,0.376,0.000,-0.004,-0.956
-1.030,-0.026,5.000,0.375,0.000,-0.004,-0.968
-1.072,-0.026,5.000,0.376,0.000,-0.004,-0.988
-1.135,-0.027,5.000,0.376,0.000,-0.004,-1.019
-1.167,-0.028,5.000,0.375,0.000,-0.004,-1.059
-1.096,-0.029,5.000,0.376,0.000,-0.004,-1.096
-1.119,-0.030,5.000,0.376,0.000,-0.004,-1.118
-1.060,-0.030,5.000,0.375,0.000,-0.004,-1.123
-0.948,-0.029,5.000,0.375,0.000,-0.004,-1.106
-0.973,-0.028,5.000,0.376,0.000,-0.004,-1.068
-0.896,-0.027,5.000,0.375,0.000,-0.004,-1.021
-0.858,-0.026,5.000,0.375,0.000,-0.004,-0.971
-0.820,-0.024,5.000,0.376,0.000,-0.004,-0.921
-0.822,-0.023,5.000,0.376,0.000,-0.004,-0.876
-0.814,-0.022,5.000,0.375,0.000,-0.004,-0.842
-0.866,-0.022,5.000,0.375,0.000,-0.004,-0.823
-0.809,-0.022,5.000,0.375,0.000,-0.004,-0.819
-0.830,-0.022,5.000,0.375,0.000,-0.004,-0.819
-0.807,-0.022,5.000,0.375,0.000,-0.004,-0.818
-0.731,-0.021,5.000,0.359,0.000,-0.004,-0.812
-0.641,-0.021,5.000,0.376,0.000,-0.004,-0.788
-0.481,-0.019,5.000,0.375,0.000,-0.004,-0.737
-0.410,-0.017,5.000,0.375,0.000,-0.004,-0.656
-0.392,-0.015,5.000,0.375,0.000,-0.004,-0.563
-0.335,-0.013,5.000,0.376,0.000,-0.004,-0.477
-0.371,-0.011,5.000,0.381,0.000,-0.004,-0.409
-0.334,-0.010,5.000,0.375,0.000,-0.004,-0.366
-0.320,-0.009,5.000,0.375,0.000,-0.004,-0.340
-0.275,-0.008,5.000,0.375,0.000,-0.004,-0.321
-0.244,-0.008,5.000,0.375,0.000,-0.004,-0.302
-0.238,-0.007,5.000,0.375,0.000,-0.004,-0.281
-0.259,-0.007,5.000,0.374,0.000,-0.004,-0.263
-0.210,-0.007,5.000,0.375,0.000,-0.004,-0.249
-0.241,-0.006,5.000,0.375,0.000,-0.004,-0.238
-0.277,-0.006,5.000,0.375,0.000,-0.004,-0.234
-0.241,-0.006,5.000,0.375,0.000,-0.004,-0.239
-0.236,-0.006,5.000,0.375,0.000,-0.004,-0.243
-0.325,-0.007,5.000,0.375,0.000,-0.004,-0.249
-0.299,-0.007,5.000,0.374,0.000,-0.004,-0.263
-0.442,-0.008,5.000,0.374,0.000,-0.004,-0.288
-0.448,-0.009,5.000,0.374,0.000,-0.004,-0.329
-0.601,-0.010,5.000,0.374,0.000,-0.004,-0.385
-0.605,-0.012,5.000,0.372,0.000,-0.004,-0.454
-0.651,-0.014,5.000,0.372,0.000,-0.004,-0.524
-0.655,-0.015,5.000,0.372,0.000,-0.004,-0.584
-0.665,-0.017,5.000,0.372,0.000,-0.004,-0.628
-0.660,-0.017,5.000,0.371,0.000,-0.004,-0.655
-0.717,-0.018,5.000,0.372,0.000,-0.004,-0.672
-0.769,-0.018,5.000,0.371,0.000,-0.004,-0.691
-0.783,-0.019,5.000,0.371,0.000,-0.004,-0.715
-0.790,-0.020,5.000,0.372,0.000,-0.004,-0.742
-0.822,-0.020,5.000,0.372,0.000,-0.004,-0.767
-0.896,-0.021,5.000,0.371,0.000,-0.004,-0.794
-0.861,-0.022,5.000,0.372,0.000,-0.004,-0.824
-0.783,-0.022,5.000,0.371,0.000,-0.004,-0.844
-0.829,-0.022,5.000,0.372,0.000,-0.004,-0.845
-0.833,-0.022,5.000,0.371,0.000,-0.004,-0.839
-0.831,-0.022,5.000,0.371,0.000,-0.004,-0.834
-0.816,-0.022,5.000,0.372,0.000,-0.004,-0.830
-0.685,-0.022,5.000,0.370,0.000,-0.004,-0.817
-0.735,-0.021,5.000,0.370,0.000,-0.004,-0.790
-0.718,-0.020,5.000,0.370,0.000,-0.004,-0.760
-0.736,-0.020,5.000,0.369,0.000,-0.004,-0.738
-0.726,-0.019,5.000,0.370,0.000,-0.004,-0.726
-0.711,-0.019,5.000,0.370,0.000,-0.004,-0.720
-0.724,-0.019,5.000,0.370,0.000,-0.004,-0.717
-0.686,-0.019,5.000,0.370,0.000,-0.004,-0.714
-0.684,-0.019,5.000,0.371,0.000,-0.004,-0.708
-0.670,-0.018,5.000,0.388,0.000,-0.004,-0.698
-0.477,-0.018,5.000,0.370,0.000,-0.004,-0.676
-0.125,-0.016,5.000,0.370,0.000,-0.004,-0.607
-0.187,-0.013,5.000,0.370,0.000,-0.004,-0.483
0.006,-0.009,5.000,0.370,0.000,-0.004,-0.340
-0.012,-0.005,5.000,0.370,0.000,-0.004,-0.204
-0.008,-0.003,5.000,0.364,0.000,-0.004,-0.095
0.001,-0.001,5.000,0.370,0.000,-0.004,-0.025
0.022,0.000,5.000,0.370,0.000,-0.004,0.013
0.042,0.001,5.000,0.370,0.000,-0.004,0.032
0.069,0.001,5.000,0.369,0.000,-0.004,0.044
0.107,0.001,5.000,0.370,0.000,-0.004,0.056
0.206,0.002,5.000,0.371,0.000,-0.004,0.077
0.160,0.003,5.000,0.370,0.000,-0.004,0.110
0.192,0.004,5.000,0.370,0.000,-0.004,0.141
0.166,0.004,5.000,0.370,0.000,-0.004,0.164
0.165,0.006,5.000,0.370,0.000,-0.004,0.176
0.092,0.006,5.000,0.370,0.000,-0.004,0.174
-0.001,0.005,5.000,0.370,0.000,-0.004,0.152
-0.095,0.004,5.000,0.370,0.000,-0.004,0.104
-0.120,0.001,5.000,0.370,0.000,-0.004,0.038
-0.156,-0.001,5.000,0.370,0.000,-0.004,-0.030
-0.431,-0.004,5.000,0.371,0.000,-0.004,-0.107
-0.401,-0.007,5.000,0.370,0.000,-0.004,-0.201
-0.563,-0.011,5.000,0.369,0.000,-0.004,-0.304
-0.530,-0.014,5.000,0.370,0.000,-0.004,-0.401
-0.552,-0.017,5.000,0.370,0.000,-0.004,-0.479
-0.563,-0.019,5.000,0.370,0.000,-0.004,-0.531
-0.572,-0.020,5.000,0.370,0.000,-0.004,-0.562
-0.587,-0.020,5.000,0.369,0.000,-0.004,-0.578
-0.635,-0.021,5.000,0.371,0.000,-0.004,-0.589
-0.661,-0.021,5.000,0.369,0.000,-0.004,-0.604
-0.676,-0.022,5.000,0.370,0.000,-0.004,-0.624
-0.740,-0.023,5.000,0.370,0.000,-0.004,-0.648
-0.698,-0.024,5.000,0.369,0.000,-0.004,-0.675
-0.727,-0.025,5.000,0.370,0.000,-0.004,-0.696
-0.703,-0.025,5.000,0.370,0.000,-0.004,-0.710
-0.612,-0.025,5.000,0.370,0.000,-0.004,-0.710
-0.592,-0.024,5.000,0.370,0.000,-0.004,-0.690
-0.460,-0.023,5.000,0.370,0.000,-0.004,-0.650
-0.429,-0.021,5.000,0.369,0.000,-0.004,-0.592
-0.457,-0.019,5.000,0.370,0.000,-0.004,-0.529
-0.408,-0.017,5.000,0.370,0.000,-0.004,-0.479
-0.435,-0.016,5.000,0.376,0.000,-0.004,-0.444
-0.430,-0.015,5.000,0.369,0.000,-0.004,-0.424
-0.449,-0.015,5.000,0.369,0.000,-0.004,-0.418
-0.489,-0.015,5.000,0.369,0.000,-0.004,-0.424
-0.434,-0.015,5.000,0.369,0.000,-0.004,-0.437
-0.367,-0.016,5.000,0.367,0.000,-0.004,-0.441
-0.039,-0.014,5.000,0.356,0.000,-0.004,-0.409
0.140,-0.011,5.000,0.369,0.000,-0.004,-0.312
0.035,-0.006,5.000,0.369,0.000,-0.004,-0.176
0.072,-0.002,5.000,0.369,0.000,-0.004,-0.055
0.109,0.001,5.000,0.369,0.000,-0.004,0.030
0.083,0.003,5.000,0.369,0.000,-0.004,0.083
0.102,0.004,5.000,0.374,0.000,-0.004,0.109
0.100,0.004,5.000,0.369,0.000,-0.004,0.118
0.111,0.004,5.000,0.370,0.000,-0.004,0.118
0.157,0.004,5.000,0.370,0.000,-0.004,0.119
0.203,0.005,5.000,0.370,0.000,-0.004,0.128
0.250,0.005,5.000,0.369,0.000,-0.004,0.151
0.259,0.006,5.000,0.369,0.000,-0.004,0.183
0.296,0.008,5.000,0.369,0.000,-0.004,0.218
0.281,0.009,5.000,0.369,0.000,-0.004,0.249
0.291,0.010,5.000,0.369,0.000,-0.004,0.272
0.220,0.010,5.000,0.369,0.000,-0.004,0.282
0.122,0.010,5.000,0.369,0.000,-0.004,0.270
0.113,0.008,5.000,0.369,0.000,-0.004,0.233
0.111,0.007,5.000,0.369,0.000,-0.004,0.188
-0.161,0.005,5.000,0.369,0.000,-0.004,0.132
-0.198,0.002,5.000,0.369,0.000,-0.004,0.050
-0.267,-0.002,5.000,0.370,0.000,-0.004,-0.050
-0.254,-0.005,5.000,0.369,0.000,-0.004,-0.142
-0.262,-0.007,5.000,0.370,0.000,-0.004,-0.212
-0.340,-0.009,5.000,0.369,0.000,-0.004,-0.259
-0.349,-0.010,5.000,0.370,0.000,-0.004,-0.296
-0.326,-0.011,5.000,0.370,0.000,-0.004,-0.323
-0.384,-0.012,5.000,0.369,0.000,-0.004,-0.341
-0.370,-0.013,5.000,0.370,0.000,-0.004,-0.355
-0.501,-0.013,5.000,0.370,0.000,-0.004,-0.373
-0.498,-0.014,5.000,0.369,0.000,-0.004,-0.405
-0.533,-0.016,5.000,0.369,0.000,-0.004,-0.444
-0.626,-0.017,5.000,0.370,0.000,-0.004,-0.486
-0.594,-0.019,5.000,0.369,0.000,-0.004,-0.532
-0.625,-0.020,5.000,0.370,0.000,-0.004,-0.571
-0.565,-0.021,5.000,0.370,0.000,-0.004,-0.596
-0.433,-0.021,5.000,0.369,0.000,-0.004,-0.595
-0.460,-0.020,5.000,0.369,0.000,-0.004,-0.564
-0.473,-0.018,5.000,0.369,0.000,-0.004,-0.524
-0.484,-0.017,5.000,0.367,0.000,-0.004,-0.494
-0.514,-0.017,5.000,0.367,0.000,-0.004,-0.479
-0.406,-0.017,5.000,0.367,0.000,-0.004,-0.472
-0.197,-0.016,5.000,0.352,0.000,-0.004,-0.447
0.052,-0.013,5.000,0.369,0.000,-0.004,-0.372
0.142,-0.009,5.000,0.369,0.000,-0.004,-0.244
0.147,-0.003,5.000,0.369,0.000,-0.004,-0.097
0.280,0.001,5.000,0.369,0.000,-0.004,0.036
0.219,0.005,5.000,0.369,0.000,-0.004,0.143
0.322,0.008,5.000,0.372,0.000,-0.004,0.219
0.327,0.010,5.000,0.367,0.000,-0.004,0.272
0.340,0.011,5.000,0.367,0.000,-0.004,0.310
0.376,0.012,5.000,0.367,0.000,-0.004,0.335
0.393,0.013,5.000,0.367,0.000,-0.004,0.355
0.395,0.013,5.000,0.367,0.000,-0.004,0.372
0.366,0.014,5.000,0.367,0.000,-0.004,0.384
0.431,0.014,5.000,0.367,0.000,-0.004,0.390
0.411,0.014,5.000,0.367,0.000,-0.004,0.397
0.417,0.014,5.000,0.367,0.000,-0.004,0.405
0.311,0.014,5.000,0.369,0.000,-0.004,0.405
0.174,0.013,5.000,0.367,0.000,-0.004,0.379
0.174,0.011,5.000,0.367,0.000,-0.004,0.326
0.173,0.009,5.000,0.369,0.000,-0.004,0.265
0.021,0.007,5.000,0.367,0.000,-0.004,0.206
-0.175,0.005,5.000,0.367,0.000,-0.004,0.131
-0.239,0.001,5.000,0.367,0.000,-0.004,0.031
-0.227,-0.003,5.000,0.367,0.000,-0.004,-0.075
-0.366,-0.006,5.000,0.369,0.000,-0.004,-0.169
-0.393,-0.009,5.000,0.369,0.000,-0.004,-0.252
-0.457,-0.011,5.000,0.367,0.000,-0.004,-0.326
-0.501,-0.014,5.000,0.367,0.000,-0.004,-0.389
-0.543,-0.016,5.000,0.369,0.000,-0.004,-0.445
-0.530,-0.017,5.000,0.367,0.000,-0.004,-0.490
-0.600,-0.019,5.000,0.367,0.000,-0.004,-0.525
-0.659,-0.020,5.000,0.367,0.000,-0.004,-0.558
-0.641,-0.021,5.000,0.367,0.000,-0.004,-0.593
-0.742,-0.022,5.000,0.367,0.000,-0.004,-0.627
-0.707,-0.023,5.000,0.367,0.000,-0.004,-0.662
-0.733,-0.024,5.000,0.367,0.000,-0.004,-0.692
-0.692,-0.025,5.000,0.367,0.000,-0.004,-0.711
-0.546,-0.025,5.000,0.370,0.000,-0.004,-0.708
-0.546,-0.024,5.000,0.367,0.000,-0.004,-0.676
-0.586,-0.022,5.000,0.367,0.000,-0.004,-0.632
-0.534,-0.021,5.000,0.367,0.000,-0.004,-0.595
-0.571,-0.020,5.000,0.367,0.000,-0.004,-0.569
-0.545,-0.020,5.000,0.366,0.000,-0.004,-0.554
-0.357,-0.019,5.000,0.352,0.000,-0.004,-0.535
-0.157,-0.017,5.000,0.367,0.000,-0.004,-0.482
-0.083,-0.014,5.000,0.367,0.000,-0.004,-0.386
-0.099,-0.010,5.000,0.367,0.000,-0.004,-0.275
-0.098,-0.006,5.000,0.367,0.000,-0.004,-0.181
-0.068,-0.004,5.000,0.367,0.000,-0.004,-0.117
-0.057,-0.003,5.000,0.371,0.000,-0.004,-0.078
-0.008,-0.002,5.000,0.367,0.000,-0.004,-0.053
-0.010,-0.001,5.000,0.367,0.000,-0.004,-0.034
-0.025,-0.001,5.000,0.367,0.000,-0.004,-0.020
0.051,-0.000,5.000,0.367,0.000,-0.004,-0.010
0.067,0.000,5.000,0.367,0.000,-0.004,0.006
0.118,0.001,5.000,0.367,0.000,-0.004,0.030
0.151,0.002,5.000,0.367,0.000,-0.004,0.061
0.069,0.003,5.000,0.367,0.000,-0.004,0.090
0.081,0.004,5.000,0.367,0.000,-0.004,0.104
0.006,0.003,5.000,0.369,0.000,-0.004,0.098
-0.028,0.003,5.000,0.369,0.000,-0.004,0.076
-0.052,0.001,5.000,0.369,0.000,-0.004,0.041
-0.036,0.000,5.000,0.369,0.000,-0.004,0.005
-0.103,-0.001,5.000,0.370,0.000,-0.004,-0.026
-0.265,-0.002,5.000,0.369,0.000,-0.004,-0.064
-0.302,-0.004,5.000,0.369,0.000,-0.004,-0.123
-0.317,-0.007,5.000,0.369,0.000,-0.004,-0.192
-0.282,-0.009,5.000,0.370,0.000,-0.004,-0.250
-0.396,-0.010,5.000,0.369,0.000,-0.004,-0.293
-0.427,-0.012,5.000,0.370,0.000,-0.004,-0.332
-0.422,-0.013,5.000,0.369,0.000,-0.004,-0.370
-0.470,-0.014,5.000,0.370,0.000,-0.004,-0.403
-0.387,-0.015,5.000,0.369,0.000,-0.004,-0.426
-0.475,-0.015,5.000,0.369,0.000,-0.004,-0.437
-0.605,-0.016,5.000,0.370,0.000,-0.004,-0.453
-0.602,-0.017,5.000,0.369,0.000,-0.004,-0.490
-0.670,-0.019,5.000,0.369,0.000,-0.004,-0.537
-0.583,-0.021,5.000,0.370,0.000,-0.004,-0.582
-0.593,-0.021,5.000,0.370,0.000,-0.004,-0.607
-0.534,-0.022,5.000,0.371,0.000,-0.004,-0.611
-0.489,-0.021,5.000,0.383,0.000,-0.004,-0.594
-0.499,-0.020,5.000,0.370,0.000,-0.004,-0.564
-0.390,-0.019,5.000,0.370,0.000,-0.004,-0.527
-0.424,-0.017,5.000,0.370,0.000,-0.004,-0.486
-0.421,-0.016,5.000,0.370,0.000,-0.004,-0.450
-0.347,-0.015,5.000,0.371,0.000,-0.004,-0.422
-0.084,-0.013,5.000,0.359,0.000,-0.004,-0.380
0.118,-0.010,5.000,0.370,0.000,-0.004,-0.292
0.163,-0.006,5.000,0.370,0.000,-0.004,-0.162
0.107,-0.001,5.000,0.370,0.000,-0.004,-0.031
0.142,0.002,5.000,0.370,0.000,-0.004,0.067
0.153,0.004,5.000,0.370,0.000,-0.004,0.127
0.230,0.006,5.000,0.374,0.000,-0.004,0.165
0.243,0.007,5.000,0.370,0.000,-0.004,0.193
0.329,0.008,5.000,0.370,0.000,-0.004,0.222
0.341,0.009,5.000,0.370,0.000,-0.004,0.257
0.328,0.010,5.000,0.370,0.000,-0.004,0.291
0.380,0.011,5.000,0.370,0.000,-0.004,0.319
0.386,0.012,5.000,0.370,0.000,-0.004,0.344
0.524,0.013,5.000,0.371,0.000,-0.004,0.373
0.409,0.014,5.000,0.370,0.000,-0.004,0.407
0.414,0.015,5.000,0.370,0.000,-0.004,0.430
0.480,0.016,5.000,0.370,0.000,-0.004,0.440
0.510,0.016,5.000,0.371,0.000,-0.004,0.452
0.518,0.017,5.000,0.370,0.000,-0.004,0.470
0.473,0.017,5.000,0.371,0.000,-0.004,0.486
0.334,0.017,5.000,0.371,0.000,-0.004,0.485
0.278,0.016,5.000,0.371,0.000,-0.004,0.452
0.254,0.014,5.000,0.371,0.000,-0.004,0.396
0.276,0.012,5.000,0.371,0.000,-0.004,0.340
0.232,0.010,5.000,0.371,0.000,-0.004,0.295
0.213,0.009,5.000,0.371,0.000,-0.004,0.261
0.144,0.008,5.000,0.371,0.000,-0.004,0.231
0.162,0.007,5.000,0.371,0.000,-0.004,0.201
0.047,0.006,5.000,0.371,0.000,-0.004,0.170
0.081,0.005,5.000,0.371,0.000,-0.004,0.135
0.069,0.004,5.000,0.370,0.000,-0.004,0.104
0.010,0.003,5.000,0.371,0.000,-0.004,0.078
0.109,0.002,5.000,0.370,0.000,-0.004,0.060
-0.040,0.002,5.000,0.371,0.000,-0.004,0.049
0.059,0.001,5.000,0.371,0.000,-0.004,0.037
0.005,0.001,5.000,0.371,0.000,-0.004,0.028
-0.011,0.001,5.000,0.371,0.000,-0.004,0.020
-0.046,0.000,5.000,0.385,0.000,-0.004,0.008
-0.063,-0.000,5.000,0.370,0.000,-0.004,-0.009
-0.000,-0.001,5.000,0.371,0.000,-0.004,-0.025
-0.197,-0.001,5.000,0.370,0.000,-0.004,-0.042
0.028,-0.002,5.000,0.370,0.000,-0.004,-0.062
0.065,-0.002,5.000,0.370,0.000,-0.004,-0.060
0.187,-0.001,5.000,0.361,0.000,-0.004,-0.023
0.202,0.001,5.000,0.370,0.000,-0.004,0.038
0.322,0.004,5.000,0.370,0.000,-0.004,0.112
0.251,0.007,5.000,0.370,0.000,-0.004,0.185
0.301,0.008,5.000,0.370,0.000,-0.004,0.241
0.367,0.010,5.000,0.371,0.000,-0.004,0.281
0.319,0.011,5.000,0.372,0.000,-0.004,0.313
0.389,0.012,5.000,0.370,0.000,-0.004,0.336
0.395,0.013,5.000,0.370,0.000,-0.004,0.355
0.350,0.013,5.000,0.370,0.000,-0.004,0.370
0.345,0.013,5.000,0.371,0.000,-0.004,0.374
0.431,0.013,5.000,0.370,0.000,-0.004,0.374
0.411,0.013,5.000,0.371,0.000,-0.004,0.382
0.256,0.014,5.000,0.371,0.000,-0.004,0.384
0.146,0.013,5.000,0.370,0.000,-0.004,0.356
0.182,0.011,5.000,0.371,0.000,-0.004,0.301
0.150,0.009,5.000,0.370,0.000,-0.004,0.243
0.202,0.007,5.000,0.371,0.000,-0.004,0.200
0.003,0.006,5.000,0.370,0.000,-0.004,0.165
-0.078,0.004,5.000,0.371,0.000,-0.004,0.118
-0.144,0.002,5.000,0.371,0.000,-0.004,0.049
-0.162,-0.001,5.000,0.371,0.000,-0.004,-0.026
-0.189,-0.003,5.000,0.372,0.000,-0.004,-0.093
-0.193,-0.005,5.000,0.372,0.000,-0.004,-0.145
-0.227,-0.006,5.000,0.372,0.000,-0.004,-0.181
-0.178,-0.007,5.000,0.374,0.000,-0.004,-0.204
-0.169,-0.007,5.000,0.372,0.000,-0.004,-0.210
-0.214,-0.007,5.000,0.372,0.000,-0.004,-0.206
-0.242,-0.007,5.000,0.372,0.000,-0.004,-0.205
-0.215,-0.007,5.000,0.372,0.000,-0.004,-0.210
-0.294,-0.008,5.000,0.372,0.000,-0.004,-0.220
-0.214,-0.008,5.000,0.372,0.000,-0.004,-0.233
-0.196,-0.008,5.000,0.374,0.000,-0.004,-0.238
-0.131,-0.008,5.000,0.372,0.000,-0.004,-0.227
0.045,-0.007,5.000,0.374,0.000,-0.004,-0.191
-0.046,-0.005,5.000,0.374,0.000,-0.004,-0.134
0.097,-0.003,5.000,0.374,0.000,-0.004,-0.072
0.055,-0.001,5.000,0.394,0.000,-0.004,-0.015
0.184,0.001,5.000,0.374,0.000,-0.004,0.038
0.413,0.004,5.000,0.374,0.000,-0.004,0.104
0.433,0.007,5.000,0.374,0.000,-0.004,0.196
0.463,0.010,5.000,0.374,0.000,-0.004,0.296
0.604,0.014,5.000,0.374,0.000,-0.004,0.388
0.519,0.017,5.000,0.367,0.000,-0.004,0.468
0.625,0.019,5.000,0.374,0.000,-0.004,0.528
0.589,0.020,5.000,0.374,0.000,-0.004,0.569
0.671,0.021,5.000,0.374,0.000,-0.004,0.600
0.604,0.022,5.000,0.374,0.000,-0.004,0.621
0.686,0.022,5.000,0.374,0.000,-0.004,0.636
0.630,0.023,5.000,0.375,0.000,-0.004,0.646
0.720,0.023,5.000,0.374,0.000,-0.004,0.655
0.448,0.023,5.000,0.374,0.000,-0.004,0.653
0.492,0.022,5.000,0.374,0.000,-0.004,0.621
0.532,0.020,5.000,0.374,0.000,-0.004,0.574
0.419,0.019,5.000,0.374,0.000,-0.004,0.534
0.478,0.018,5.000,0.374,0.000,-0.004,0.498
0.429,0.017,5.000,0.374,0.000,-0.004,0.470
0.400,0.016,5.000,0.374,0.000,-0.004,0.449
0.390,0.015,5.000,0.372,0.000,-0.004,0.429
0.143,0.014,5.000,0.372,0.000,-0.004,0.395
0.117,0.012,5.000,0.372,0.000,-0.004,0.332
0.008,0.009,5.000,0.371,0.000,-0.004,0.246
-0.001,0.005,5.000,0.372,0.000,-0.004,0.155
0.035,0.003,5.000,0.372,0.000,-0.004,0.079
-0.020,0.001,5.000,0.372,0.000,-0.004,0.029
-0.022,-0.000,5.000,0.372,0.000,-0.004,-0.002
-0.068,-0.001,5.000,0.372,0.000,-0.004,-0.023
-0.139,-0.002,5.000,0.374,0.000,-0.004,-0.045
-0.142,-0.003,5.000,0.374,0.000,-0.004,-0.074
-0.148,-0.004,5.000,0.372,0.000,-0.004,-0.103
-0.166,-0.005,5.000,0.371,0.000,-0.004,-0.128
-0.079,-0.005,5.000,0.372,0.000,-0.004,-0.142
-0.044,-0.005,5.000,0.371,0.000,-0.004,-0.136
0.002,-0.004,5.000,0.371,0.000,-0.004,-0.110
0.062,-0.002,5.000,0.345,0.000,-0.004,-0.070
0.037,-0.001,5.000,0.371,0.000,-0.004,-0.025
0.094,0.001,5.000,0.371,0.000,-0.004,0.015
0.106,0.002,5.000,0.371,0.000,-0.004,0.050
0.182,0.003,5.000,0.371,0.000,-0.004,0.083
0.322,0.004,5.000,0.371,0.000,-0.004,0.126
0.636,0.007,5.000,0.380,0.000,-0.004,0.204
0.580,0.011,5.000,0.371,0.000,-0.004,0.322
0.738,0.016,5.000,0.371,0.000,-0.004,0.451
0.619,0.020,5.000,0.371,0.000,-0.004,0.561
0.729,0.023,5.000,0.371,0.000,-0.004,0.638
0.673,0.024,5.000,0.370,0.000,-0.004,0.685
0.662,0.025,5.000,0.369,0.000,-0.004,0.705
0.840,0.025,5.000,0.371,0.000,-0.004,0.715
0.739,0.026,5.000,0.370,0.000,-0.004,0.732
0.738,0.026,5.000,0.371,0.000,-0.004,0.748
0.713,0.026,5.000,0.370,0.000,-0.004,0.751
0.466,0.026,5.000,0.370,0.000,-0.004,0.729
0.544,0.024,5.000,0.371,0.000,-0.004,0.674
0.382,0.021,5.000,0.370,0.000,-0.004,0.603
0.377,0.019,5.000,0.370,0.000,-0.004,0.527
0.353,0.016,5.000,0.370,0.000,-0.004,0.455
0.404,0.014,5.000,0.371,0.000,-0.004,0.402
0.432,0.013,5.000,0.370,0.000,-0.004,0.378
0.276,0.013,5.000,0.371,0.000,-0.004,0.369
0.138,0.012,5.000,0.370,0.000,-0.004,0.343
0.021,0.010,5.000,0.370,0.000,-0.004,0.283
-0.111,0.007,5.000,0.370,0.000,-0.004,0.191
0.012,0.003,5.000,0.370,0.000,-0.004,0.091
-0.093,0.000,5.000,0.370,0.000,-0.004,0.014
-0.057,-0.001,5.000,0.369,0.000,-0.004,-0.038
-0.080,-0.002,5.000,0.370,0.000,-0.004,-0.070
-0.161,-0.003,5.000,0.370,0.000,-0.004,-0.090
-0.204,-0.004,5.000,0.370,0.000,-0.004,-0.114
-0.246,-0.005,5.000,0.371,0.000,-0.004,-0.146
-0.221,-0.006,5.000,0.371,0.000,-0.004,-0.181
-0.263,-0.007,5.000,0.372,0.000,-0.004,-0.211
-0.108,-0.008,5.000,0.377,0.000,-0.004,-0.224
-0.175,-0.008,5.000,0.371,0.000,-0.004,-0.215
-0.115,-0.007,5.000,0.371,0.000,-0.004,-0.193
-0.074,-0.006,5.000,0.371,0.000,-0.004,-0.166
-0.124,-0.005,5.000,0.370,0.000,-0.004,-0.136
-0.101,-0.004,5.000,0.371,0.000,-0.004,-0.116
0.141,-0.003,5.000,0.361,0.000,-0.004,-0.090
0.158,-0.001,5.000,0.371,0.000,-0.004,-0.035
0.223,0.001,5.000,0.371,0.000,-0.004,0.040
0.191,0.004,5.000,0.371,0.000,-0.004,0.112
0.245,0.006,5.000,0.371,0.000,-0.004,0.169
0.211,0.007,5.000,0.371,0.000,-0.004,0.207
0.246,0.008,5.000,0.374,0.000,-0.004,0.230
0.317,0.009,5.000,0.371,0.000,-0.004,0.246
0.418,0.010,5.000,0.371,0.000,-0.004,0.272
0.333,0.011,5.000,0.370,0.000,-0.004,0.308
0.368,0.012,5.000,0.372,0.000,-0.004,0.337
0.236,0.012,5.000,0.371,0.000,-0.004,0.348
0.099,0.011,5.000,0.372,0.000,-0.004,0.324
0.162,0.010,5.000,0.372,0.000,-0.004,0.271
0.060,0.007,5.000,0.372,0.000,-0.004,0.210
0.139,0.006,5.000,0.372,0.000,-0.004,0.157
0.093,0.004,5.000,0.372,0.000,-0.004,0.122
0.090,0.004,5.000,0.372,0.000,-0.004,0.101
0.146,0.003,5.000,0.372,0.000,-0.004,0.093
0.035,0.003,5.000,0.372,0.000,-0.004,0.092
-0.209,0.002,5.000,0.372,0.000,-0.004,0.069
-0.150,0.000,5.000,0.372,0.000,-0.004,0.010
-0.212,-0.002,5.000,0.372,0.000,-0.004,-0.064
-0.138,-0.004,5.000,0.372,0.000,-0.004,-0.124
-0.238,-0.006,5.000,0.372,0.000,-0.004,-0.165
-0.160,-0.007,5.000,0.372,0.000,-0.004,-0.190
-0.197,-0.007,5.000,0.372,0.000,-0.004,-0.201
-0.393,-0.008,5.000,0.374,0.000,-0.004,-0.215
-0.363,-0.009,5.000,0.374,0.000,-0.004,-0.251
-0.313,-0.010,5.000,0.375,0.000,-0.004,-0.293
-0.348,-0.011,5.000,0.375,0.000,-0.004,-0.322
-0.233,-0.012,5.000,0.374,0.000,-0.004,-0.332
-0.129,-0.011,5.000,0.376,0.000,-0.004,-0.313
-0.160,-0.009,5.000,0.375,0.000,-0.004,-0.267
-0.085,-0.008,5.000,0.376,0.000,-0.004,-0.214
-0.162,-0.006,5.000,0.376,0.000,-0.004,-0.168
-0.086,-0.005,5.000,0.376,0.000,-0.004,-0.137
-0.001,-0.004,5.000,0.393,0.000,-0.004,-0.110
0.206,-0.002,5.000,0.377,0.000,-0.004,-0.064
0.241,0.000,5.000,0.376,0.000,-0.004,0.013
0.318,0.004,5.000,0.376,0.000,-0.004,0.105
0.286,0.007,5.000,0.376,0.000,-0.004,0.192
0.324,0.009,5.000,0.376,0.000,-0.004,0.258
0.332,0.011,5.000,0.374,0.000,-0.004,0.301
0.410,0.012,5.000,0.376,0.000,-0.004,0.332
0.444,0.013,5.000,0.377,0.000,-0.004,0.363
0.392,0.014,5.000,0.376,0.000,-0.004,0.391
0.479,0.015,5.000,0.376,0.000,-0.004,0.412
0.431,0.015,5.000,0.376,0.000,-0.004,0.429
0.397,0.015,5.000,0.376,0.000,-0.004,0.438
0.284,0.015,5.000,0.376,0.000,-0.004,0.427
0.389,0.014,5.000,0.376,0.000,-0.004,0.400
0.271,0.013,5.000,0.376,0.000,-0.004,0.372
0.241,0.012,5.000,0.376,0.000,-0.004,0.340
0.231,0.011,5.000,0.375,0.000,-0.004,0.302
0.235,0.009,5.000,0.377,0.000,-0.004,0.269
0.190,0.009,5.000,0.376,0.000,-0.004,0.243
0.165,0.008,5.000,0.376,0.000,-0.004,0.219
-0.074,0.006,5.000,0.377,0.000,-0.004,0.182
-0.025,0.004,5.000,0.377,0.000,-0.004,0.121
-0.105,0.002,5.000,0.376,0.000,-0.004,0.049
-0.116,-0.001,5.000,0.376,0.000,-0.004,-0.016
-0.051,-0.002,5.000,0.376,0.000,-0.004,-0.065
-0.023,-0.003,5.000,0.377,0.000,-0.004,-0.085
-0.152,-0.003,5.000,0.377,0.000,-0.004,-0.089
-0.059,-0.003,5.000,0.376,0.000,-0.004,-0.092
-0.067,-0.003,5.000,0.376,0.000,-0.004,-0.092
-0.129,-0.003,5.000,0.377,0.000,-0.004,-0.089
-0.121,-0.003,5.000,0.376,0.000,-0.004,-0.093
-0.146,-0.004,5.000,0.376,0.000,-0.004,-0.104
0.003,-0.004,5.000,0.377,0.000,-0.004,-0.108
0.030,-0.003,5.000,0.376,0.000,-0.004,-0.090
0.050,-0.002,5.000,0.378,0.000,-0.004,-0.053
0.071,-0.000,5.000,0.377,0.000,-0.004,-0.011
0.116,0.001,5.000,0.355,0.000,-0.004,0.029
0.117,0.002,5.000,0.378,0.000,-0.004,0.066
0.584,0.004,5.000,0.378,0.000,-0.004,0.123
0.561,0.008,5.000,0.378,0.000,-0.004,0.232
0.618,0.019,5.000,0.378,0.000,-0.004,0.366
0.712,0.026,5.000,0.380,0.000,-0.004,0.489
0.782,0.032,5.000,0.383,0.000,-0.004,0.597
0.708,0.036,5.000,0.378,0.000,-0.004,0.681
0.801,0.039,5.000,0.378,0.000,-0.004,0.735
0.831,0.041,5.000,0.380,0.000,-0.004,0.772
0.789,0.042,5.000,0.381,0.000,-0.004,0.798
0.793,0.043,5.000,0.381,0.000,-0.004,0.810
0.755,0.043,5.000,0.380,0.000,-0.004,0.808
0.948,0.043,5.000,0.381,0.000,-0.004,0.808
0.836,0.044,5.000,0.381,0.000,-0.004,0.824
0.843,0.045,5.000,0.381,0.000,-0.004,0.841
0.701,0.044,5.000,0.381,0.000,-0.004,0.839
0.744,0.043,5.000,0.381,0.000,-0.004,0.816
0.675,0.041,5.000,0.381,0.000,-0.004,0.781
0.711,0.039,5.000,0.381,0.000,-0.004,0.745
0.688,0.038,5.000,0.382,0.000,-0.004,0.717
0.784,0.037,5.000,0.382,0.000,-0.004,0.705
0.341,0.036,5.000,0.383,0.000,-0.004,0.686
0.444,0.033,5.000,0.383,0.000,-0.004,0.626
0.337,0.029,5.000,0.385,0.000,-0.004,0.541
0.310,0.024,5.000,0.383,0.000,-0.004,0.459
0.213,0.020,5.000,0.385,0.000,-0.004,0.381
0.329,0.017,5.000,0.386,0.000,-0.004,0.318
0.245,0.015,5.000,0.388,0.000,-0.004,0.281
0.138,0.013,5.000,0.391,0.000,-0.004,0.254
0.213,0.012,5.000,0.391,0.000,-0.004,0.224
0.167,0.011,5.000,0.391,0.000,-0.004,0.201
0.249,0.010,5.000,0.391,0.000,-0.004,0.190
0.093,0.010,5.000,0.386,0.000,-0.004,0.185
0.130,0.009,5.000,0.387,0.000,-0.004,0.172
0.143,0.008,5.000,0.386,0.000,-0.004,0.154
0.277,0.008,5.000,0.386,0.000,-0.004,0.151
0.342,0.009,5.000,0.398,0.000,-0.004,0.176
0.399,0.012,5.000,0.391,0.000,-0.004,0.228
0.471,0.016,5.000,0.389,0.000,-0.004,0.294
0.404,0.019,5.000,0.389,0.000,-0.004,0.358
0.597,0.022,5.000,0.391,0.000,-0.004,0.413
0.641,0.025,5.000,0.389,0.000,-0.004,0.474
0.852,0.029,5.000,0.377,0.000,-0.004,0.552
0.792,0.034,5.000,0.391,0.000,-0.004,0.643
0.864,0.039,5.000,0.391,0.000,-0.004,0.729
0.884,0.042,5.000,0.389,0.000,-0.004,0.796
0.947,0.045,5.000,0.389,0.000,-0.004,0.850
1.028,0.048,5.000,0.391,0.000,-0.004,0.899
0.969,0.050,5.000,0.393,0.000,-0.004,0.943
1.044,0.052,5.000,0.389,0.000,-0.004,0.977
0.972,0.053,5.000,0.389,0.000,-0.004,1.000
1.066,0.054,5.000,0.389,0.000,-0.004,1.013
1.049,0.054,5.000,0.389,0.000,-0.004,1.024
1.014,0.055,5.000,0.389,0.000,-0.004,1.034
1.003,0.055,5.000,0.389,0.000,-0.004,1.035
0.882,0.054,5.000,0.389,0.000,-0.004,1.020
0.810,0.052,5.000,0.388,0.000,-0.004,0.982
0.825,0.049,5.000,0.389,0.000,-0.004,0.928
0.838,0.047,5.000,0.389,0.000,-0.004,0.878
0.770,0.045,5.000,0.391,0.000,-0.004,0.841
0.722,0.043,5.000,0.388,0.000,-0.004,0.808
0.518,0.040,5.000,0.388,0.000,-0.004,0.763
0.390,0.036,5.000,0.389,0.000,-0.004,0.687
0.488,0.031,5.000,0.389,0.000,-0.004,0.594
0.429,0.027,5.000,0.389,0.000,-0.004,0.517
0.339,0.024,5.000,0.389,0.000,-0.004,0.459
0.253,0.021,5.000,0.389,0.000,-0.004,0.404
0.411,0.019,5.000,0.389,0.000,-0.004,0.357
0.259,0.017,5.000,0.388,0.000,-0.004,0.330
0.332,0.017,5.000,0.389,0.000,-0.004,0.315
0.322,0.016,5.000,0.389,0.000,-0.004,0.307
0.207,0.016,5.000,0.389,0.000,-0.004,0.301
0.222,0.015,5.000,0.388,0.000,-0.004,0.283
0.224,0.014,5.000,0.388,0.000,-0.004,0.259
0.285,0.013,5.000,0.389,0.000,-0.004,0.243
0.262,0.013,5.000,0.389,0.000,-0.004,0.242
0.355,0.013,5.000,0.389,0.000,-0.004,0.253
0.244,0.014,5.000,0.389,0.000,-0.004,0.270
0.239,0.015,5.000,0.389,0.000,-0.004,0.278
0.327,0.015,5.000,0.410,0.000,-0.004,0.277
0.513,0.016,5.000,0.389,0.000,-0.004,0.295
0.550,0.018,5.000,0.389,0.000,-0.004,0.347
0.550,0.022,5.000,0.388,0.000,-0.004,0.418
0.579,0.026,5.000,0.388,0.000,-0.004,0.484
0.546,0.028,5.000,0.388,0.000,-0.004,0.532
0.656,0.030,5.000,0.385,0.000,-0.004,0.566
0.600,0.031,5.000,0.385,0.000,-0.004,0.592
0.568,0.032,5.000,0.385,0.000,-0.004,0.607
0.634,0.032,5.000,0.385,0.000,-0.004,0.610
0.583,0.032,5.000,0.383,0.000,-0.004,0.610
0.606,0.032,5.000,0.383,0.000,-0.004,0.608
0.643,0.032,5.000,0.385,0.000,-0.004,0.607
0.619,0.032,5.000,0.388,0.000,-0.004,0.612
0.474,0.032,5.000,0.388,0.000,-0.004,0.608
0.525,0.031,5.000,0.388,0.000,-0.004,0.585
0.389,0.029,5.000,0.388,0.000,-0.004,0.549
0.386,0.027,5.000,0.387,0.000,-0.004,0.501
0.390,0.024,5.000,0.389,0.000,-0.004,0.452
0.355,0.022,5.000,0.387,0.000,-0.004,0.413
0.351,0.020,5.000,0.387,0.000,-0.004,0.383
0.228,0.019,5.000,0.387,0.000,-0.004,0.354
0.102,0.016,5.000,0.387,0.000,-0.004,0.310
0.120,0.013,5.000,0.387,0.000,-0.004,0.248
-0.001,0.010,5.000,0.386,0.000,-0.004,0.181
0.103,0.006,5.000,0.386,0.000,-0.004,0.120
0.030,0.004,5.000,0.383,0.000,-0.004,0.078
0.015,0.003,5.000,0.382,0.000,-0.004,0.051
0.046,0.002,5.000,0.382,0.000,-0.004,0.033
-0.028,0.001,5.000,0.382,0.000,-0.004,0.022
-0.099,0.000,5.000,0.382,0.000,-0.004,0.005
-0.043,-0.001,5.000,0.381,0.000,-0.004,-0.021
-0.200,-0.003,5.000,0.381,0.000,-0.004,-0.050
-0.071,-0.004,5.000,0.381,0.000,-0.004,-0.083
0.023,-0.005,5.000,0.381,0.000,-0.004,-0.097
-0.064,-0.004,5.000,0.381,0.000,-0.004,-0.084
0.071,-0.003,5.000,0.381,0.000,-0.004,-0.060
0.122,-0.001,5.000,0.360,0.000,-0.004,-0.023
0.149,0.002,5.000,0.380,0.000,-0.004,0.028
0.270,0.005,5.000,0.380,0.000,-0.004,0.086
0.256,0.008,5.000,0.380,0.000,-0.004,0.149
0.200,0.011,5.000,0.380,0.000,-0.004,0.200
0.236,0.012,5.000,0.381,0.000,-0.004,0.229
0.337,0.013,5.000,0.385,0.000,-0.004,0.247
0.288,0.014,5.000,0.380,0.000,-0.004,0.268
0.339,0.015,5.000,0.382,0.000,-0.004,0.288
0.278,0.016,5.000,0.381,0.000,-0.004,0.303
0.259,0.016,5.000,0.381,0.000,-0.004,0.305
0.366,0.016,5.000,0.380,0.000,-0.004,0.303
0.444,0.017,5.000,0.380,0.000,-0.004,0.315
0.353,0.018,5.000,0.380,0.000,-0.004,0.342
0.257,0.019,5.000,0.380,0.000,-0.004,0.356
0.216,0.018,5.000,0.380,0.000,-0.004,0.341
0.212,0.016,5.000,0.380,0.000,-0.004,0.306
0.204,0.014,5.000,0.380,0.000,-0.004,0.267
0.183,0.012,5.000,0.378,0.000,-0.004,0.233
0.139,0.011,5.000,0.378,0.000,-0.004,0.204
0.125,0.009,5.000,0.380,0.000,-0.004,0.177
0.110,0.008,5.000,0.380,0.000,-0.004,0.152
-0.029,0.007,5.000,0.380,0.000,-0.004,0.123
0.027,0.004,5.000,0.378,0.000,-0.004,0.085
-0.079,0.002,5.000,0.380,0.000,-0.004,0.044
0.043,0.000,5.000,0.378,0.000,-0.004,0.009
-0.030,-0.001,5.000,0.378,0.000,-0.004,-0.010
-0.013,-0.001,5.000,0.378,0.000,-0.004,-0.018
-0.068,-0.001,5.000,0.378,0.000,-0.004,-0.024
-0.000,-0.002,5.000,0.378,0.000,-0.004,-0.031
0.074,-0.001,5.000,0.378,0.000,-0.004,-0.026
-0.136,-0.001,5.000,0.377,0.000,-0.004,-0.016
-0.126,-0.001,5.000,0.378,0.000,-0.004,-0.028
-0.145,-0.003,5.000,0.378,0.000,-0.004,-0.059
0.004,-0.004,5.000,0.378,0.000,-0.004,-0.084
-0.036,-0.004,5.000,0.378,0.000,-0.004,-0.085
0.015,-0.004,5.000,0.380,0.000,-0.004,-0.068
0.029,-0.002,5.000,0.398,0.000,-0.004,-0.042
0.280,0.000,5.000,0.378,0.000,-0.004,0.002
0.372,0.004,5.000,0.380,0.000,-0.004,0.079
0.319,0.009,5.000,0.380,0.000,-0.004,0.177
0.456,0.014,5.000,0.380,0.000,-0.004,0.267
0.335,0.018,5.000,0.378,0.000,-0.004,0.337
0.450,0.020,5.000,0.376,0.000,-0.004,0.382
0.393,0.022,5.000,0.380,0.000,-0.004,0.408
0.413,0.022,5.000,0.378,0.000,-0.004,0.421
0.384,0.022,5.000,0.380,0.000,-0.004,0.421
0.476,0.022,5.000,0.378,0.000,-0.004,0.419
0.387,0.022,5.000,0.380,0.000,-0.004,0.421
0.409,0.022,5.000,0.380,0.000,-0.004,0.420
0.248,0.021,5.000,0.378,0.000,-0.004,0.406
0.310,0.020,5.000,0.378,0.000,-0.004,0.374
0.226,0.018,5.000,0.378,0.000,-0.004,0.335
0.194,0.016,5.000,0.380,0.000,-0.004,0.294
0.196,0.013,5.000,0.378,0.000,-0.004,0.253
0.097,0.011,5.000,0.378,0.000,-0.004,0.215
0.123,0.009,5.000,0.380,0.000,-0.004,0.176
0.115,0.008,5.000,0.378,0.000,-0.004,0.144
-0.125,0.006,5.000,0.380,0.000,-0.004,0.108
-0.198,0.002,5.000,0.378,0.000,-0.004,0.045
-0.220,-0.002,5.000,0.380,0.000,-0.004,-0.039
-0.231,-0.006,5.000,0.378,0.000,-0.004,-0.121
-0.190,-0.010,5.000,0.378,0.000,-0.004,-0.181
-0.248,-0.011,5.000,0.378,0.000,-0.004,-0.216
-0.264,-0.013,5.000,0.378,0.000,-0.004,-0.236
-0.210,-0.013,5.000,0.380,0.000,-0.004,-0.248
-0.252,-0.013,5.000,0.378,0.000,-0.004,-0.250
-0.422,-0.014,5.000,0.378,0.000,-0.004,-0.259
-0.287,-0.015,5.000,0.380,0.000,-0.004,-0.284
-0.321,-0.016,5.000,0.378,0.000,-0.004,-0.306
-0.191,-0.016,5.000,0.378,0.000,-0.004,-0.310
-0.223,-0.015,5.000,0.378,0.000,-0.004,-0.292
-0.163,-0.014,5.000,0.378,0.000,-0.004,-0.261
-0.090,-0.012,5.000,0.377,0.000,-0.004,-0.223
0.136,-0.009,5.000,0.363,0.000,-0.004,-0.164
0.358,-0.003,5.000,0.378,0.000,-0.004,-0.064
0.304,0.004,5.000,0.380,0.000,-0.004,0.067
0.315,0.010,5.000,0.378,0.000,-0.004,0.187
0.413,0.015,5.000,0.378,0.000,-0.004,0.277
0.346,0.018,5.000,0.378,0.000,-0.004,0.341
0.459,0.020,5.000,0.382,0.000,-0.004,0.381
0.440,0.022,5.000,0.377,0.000,-0.004,0.410
0.358,0.023,5.000,0.378,0.000,-0.004,0.426
0.461,0.023,5.000,0.378,0.000,-0.004,0.428
0.373,0.022,5.000,0.378,0.000,-0.004,0.425
0.411,0.022,5.000,0.377,0.000,-0.004,0.419
0.368,0.022,5.000,0.378,0.000,-0.004,0.409
0.321,0.021,5.000,0.378,0.000,-0.004,0.394
0.337,0.020,5.000,0.378,0.000,-0.004,0.373
0.360,0.019,5.000,0.378,0.000,-0.004,0.355
0.221,0.018,5.000,0.378,0.000,-0.004,0.338
0.279,0.017,5.000,0.378,0.000,-0.004,0.314
0.191,0.015,5.000,0.377,0.000,-0.004,0.285
0.258,0.014,5.000,0.378,0.000,-0.004,0.259
-0.014,0.012,5.000,0.378,0.000,-0.004,0.226
-0.157,0.008,5.000,0.378,0.000,-0.004,0.160
-0.214,0.003,5.000,0.378,0.000,-0.004,0.058
-0.216,-0.003,5.000,0.380,0.000,-0.004,-0.050
-0.172,-0.007,5.000,0.378,0.000,-0.004,-0.137
-0.227,-0.010,5.000,0.378,0.000,-0.004,-0.190
-0.241,-0.012,5.000,0.378,0.000,-0.004,-0.220
-0.253,-0.013,5.000,0.378,0.000,-0.004,-0.238
-0.313,-0.013,5.000,0.380,0.000,-0.004,-0.253
-0.238,-0.014,5.000,0.378,0.000,-0.004,-0.266
-0.279,-0.014,5.000,0.377,0.000,-0.004,-0.272
-0.258,-0.014,5.000,0.365,0.000,-0.004,-0.272
-0.299,-0.014,5.000,0.378,0.000,-0.004,-0.273
-0.232,-0.014,5.000,0.378,0.000,-0.004,-0.273
-0.258,-0.014,5.000,0.378,0.000,-0.004,-0.268
-0.052,-0.013,5.000,0.378,0.000,-0.004,-0.249
0.079,-0.010,5.000,0.378,0.000,-0.004,-0.197
0.367,-0.005,5.000,0.389,0.000,-0.004,-0.096
0.237,0.002,5.000,0.377,0.000,-0.004,0.037
0.412,0.009,5.000,0.380,0.000,-0.004,0.163
0.355,0.014,5.000,0.378,0.000,-0.004,0.266
0.321,0.018,5.000,0.378,0.000,-0.004,0.335
0.378,0.019,5.000,0.378,0.000,-0.004,0.368
0.458,0.020,5.000,0.377,0.000,-0.004,0.386
0.498,0.022,5.000,0.380,0.000,-0.004,0.409
0.440,0.023,5.000,0.378,0.000,-0.004,0.435
0.493,0.024,5.000,0.378,0.000,-0.004,0.454
0.414,0.025,5.000,0.378,0.000,-0.004,0.464
0.236,0.024,5.000,0.381,0.000,-0.004,0.450
0.312,0.022,5.000,0.378,0.000,-0.004,0.406
0.255,0.019,5.000,0.378,0.000,-0.004,0.356
0.343,0.017,5.000,0.380,0.000,-0.004,0.317
0.282,0.016,5.000,0.380,0.000,-0.004,0.297
0.270,0.015,5.000,0.378,0.000,-0.004,0.288
0.208,0.015,5.000,0.380,0.000,-0.004,0.276
0.190,0.014,5.000,0.380,0.000,-0.004,0.257
-0.006,0.012,5.000,0.380,0.000,-0.004,0.221
-0.179,0.008,5.000,0.380,0.000,-0.004,0.151
-0.188,0.003,5.000,0.381,0.000,-0.004,0.048
-0.155,-0.003,5.000,0.378,0.000,-0.004,-0.052
-0.088,-0.006,5.000,0.380,0.000,-0.004,-0.120
-0.146,-0.008,5.000,0.378,0.000,-0.004,-0.150
-0.161,-0.008,5.000,0.378,0.000,-0.004,-0.160
-0.195,-0.009,5.000,0.380,0.000,-0.004,-0.165
-0.251,-0.009,5.000,0.378,0.000,-0.004,-0.176
-0.188,-0.010,5.000,0.378,0.000,-0.004,-0.192
-0.231,-0.011,5.000,0.378,0.000,-0.004,-0.205
-0.164,-0.011,5.000,0.380,0.000,-0.004,-0.210
-0.053,-0.011,5.000,0.398,0.000,-0.004,-0.198
0.141,-0.008,5.000,0.380,0.000,-0.004,-0.152
0.501,-0.003,5.000,0.378,0.000,-0.004,-0.050
0.428,0.006,5.000,0.378,0.000,-0.004,0.105
0.516,0.014,5.000,0.378,0.000,-0.004,0.263
0.496,0.021,5.000,0.377,0.000,-0.004,0.388
0.523,0.025,5.000,0.374,0.000,-0.004,0.473
0.550,0.028,5.000,0.378,0.000,-0.004,0.523
0.646,0.029,5.000,0.378,0.000,-0.004,0.556
0.658,0.031,5.000,0.378,0.000,-0.004,0.587
0.592,0.032,5.000,0.378,0.000,-0.004,0.614
0.527,0.033,5.000,0.378,0.000,-0.004,0.620
0.590,0.032,5.000,0.378,0.000,-0.004,0.608
0.561,0.031,5.000,0.378,0.000,-0.004,0.592
0.533,0.031,5.000,0.378,0.000,-0.004,0.577
0.495,0.030,5.000,0.377,0.000,-0.004,0.559
0.476,0.028,5.000,0.378,0.000,-0.004,0.536
0.425,0.027,5.000,0.378,0.000,-0.004,0.509
0.489,0.026,5.000,0.380,0.000,-0.004,0.483
0.489,0.025,5.000,0.378,0.000,-0.004,0.469
0.425,0.025,5.000,0.378,0.000,-0.004,0.464
0.271,0.024,5.000,0.378,0.000,-0.004,0.446
-0.052,0.020,5.000,0.378,0.000,-0.004,0.385
-0.019,0.014,5.000,0.378,0.000,-0.004,0.272
-0.016,0.008,5.000,0.378,0.000,-0.004,0.148
-0.106,0.003,5.000,0.378,0.000,-0.004,0.047
-0.039,-0.001,5.000,0.378,0.000,-0.004,-0.025
-0.153,-0.004,5.000,0.378,0.000,-0.004,-0.072
-0.133,-0.006,5.000,0.380,0.000,-0.004,-0.105
-0.083,-0.007,5.000,0.378,0.000,-0.004,-0.124
-0.161,-0.007,5.000,0.380,0.000,-0.004,-0.130
-0.176,-0.007,5.000,0.380,0.000,-0.004,-0.137
-0.259,-0.008,5.000,0.378,0.000,-0.004,-0.153
-0.213,-0.009,5.000,0.378,0.000,-0.004,-0.179
-0.102,-0.010,5.000,0.378,0.000,-0.004,-0.194
-0.170,-0.010,5.000,0.380,0.000,-0.004,-0.189
-0.082,-0.009,5.000,0.378,0.000,-0.004,-0.173
0.006,-0.008,5.000,0.370,0.000,-0.004,-0.143
-0.057,-0.005,5.000,0.378,0.000,-0.004,-0.103
-0.033,-0.004,5.000,0.378,0.000,-0.004,-0.068
0.065,-0.002,5.000,0.378,0.000,-0.004,-0.039
0.013,-0.001,5.000,0.378,0.000,-0.004,-0.010
0.060,0.001,5.000,0.378,0.000,-0.004,0.015
0.077,0.002,5.000,0.381,0.000,-0.004,0.035
0.212,0.003,5.000,0.378,0.000,-0.004,0.061
0.203,0.005,5.000,0.380,0.000,-0.004,0.101
0.159,0.008,5.000,0.380,0.000,-0.004,0.142
0.122,0.009,5.000,0.378,0.000,-0.004,0.165
0.045,0.009,5.000,0.378,0.000,-0.004,0.162
-0.063,0.007,5.000,0.378,0.000,-0.004,0.130
0.061,0.004,5.000,0.378,0.000,-0.004,0.082
0.089,0.003,5.000,0.377,0.000,-0.004,0.050
-0.025,0.002,5.000,0.378,0.000,-0.004,0.037
-0.005,0.001,5.000,0.378,0.000,-0.004,0.024
-0.001,0.001,5.000,0.377,0.000,-0.004,0.010
-0.002,0.000,5.000,0.377,0.000,-0.004,0.001
0.005,-0.000,5.000,0.377,0.000,-0.004,-0.003
-0.146,-0.001,5.000,0.378,0.000,-0.004,-0.013
-0.154,-0.002,5.000,0.378,0.000,-0.004,-0.041
-0.132,-0.004,5.000,0.378,0.000,-0.004,-0.079
-0.129,-0.006,5.000,0.377,0.000,-0.004,-0.110
-0.091,-0.007,5.000,0.378,0.000,-0.004,-0.127
-0.210,-0.007,5.000,0.380,0.000,-0.004,-0.135
-0.150,-0.008,5.000,0.378,0.000,-0.004,-0.146
-0.210,-0.008,5.000,0.378,0.000,-0.004,-0.159
-0.347,-0.010,5.000,0.378,0.000,-0.004,-0.182
-0.243,-0.012,5.000,0.378,0.000,-0.004,-0.218
-0.289,-0.013,5.000,0.377,0.000,-0.004,-0.249
-0.212,-0.014,5.000,0.361,0.000,-0.004,-0.265
-0.054,-0.013,5.000,0.378,0.000,-0.004,-0.254
0.213,-0.010,5.000,0.378,0.000,-0.004,-0.193
0.207,-0.004,5.000,0.378,0.000,-0.004,-0.083
0.365,0.002,5.000,0.377,0.000,-0.004,0.047
0.313,0.009,5.000,0.378,0.000,-0.004,0.170
0.414,0.014,5.000,0.383,0.000,-0.004,0.269
0.474,0.018,5.000,0.378,0.000,-0.004,0.346
0.421,0.021,5.000,0.377,0.000,-0.004,0.405
0.403,0.023,5.000,0.377,0.000,-0.004,0.437
0.407,0.023,5.000,0.377,0.000,-0.004,0.444
0.443,0.023,5.000,0.377,0.000,-0.004,0.440
0.301,0.023,5.000,0.377,0.000,-0.004,0.428
0.240,0.021,5.000,0.377,0.000,-0.004,0.396
0.256,0.018,5.000,0.377,0.000,-0.004,0.348
0.195,0.016,5.000,0.377,0.000,-0.004,0.300
0.253,0.014,5.000,0.377,0.000,-0.004,0.259
0.201,0.012,5.000,0.377,0.000,-0.004,0.233
0.215,0.012,5.000,0.377,0.000,-0.004,0.218
0.208,0.011,5.000,0.377,0.000,-0.004,0.209
0.138,0.011,5.000,0.377,0.000,-0.004,0.201
0.114,0.010,5.000,0.377,0.000,-0.004,0.184
-0.096,0.008,5.000,0.377,0.000,-0.004,0.148
-0.091,0.005,5.000,0.376,0.000,-0.004,0.086
-0.261,0.000,5.000,0.377,0.000,-0.004,0.003
-0.161,-0.004,5.000,0.377,0.000,-0.004,-0.081
-0.227,-0.008,5.000,0.377,0.000,-0.004,-0.149
-0.230,-0.010,5.000,0.377,0.000,-0.004,-0.194
-0.231,-0.012,5.000,0.377,0.000,-0.004,-0.223
-0.184,-0.012,5.000,0.377,0.000,-0.004,-0.235
-0.170,-0.012,5.000,0.376,0.000,-0.004,-0.229
-0.227,-0.011,5.000,0.352,0.000,-0.004,-0.217
-0.153,-0.011,5.000,0.377,0.000,-0.004,-0.206
-0.082,-0.010,5.000,0.377,0.000,-0.004,-0.188
-0.015,-0.008,5.000,0.377,0.000,-0.004,-0.154
0.034,-0.006,5.000,0.377,0.000,-0.004,-0.106
0.210,-0.002,5.000,0.377,0.000,-0.004,-0.042
0.271,0.002,5.000,0.383,0.000,-0.004,0.041
0.264,0.007,5.000,0.377,0.000,-0.004,0.130
0.353,0.011,5.000,0.377,0.000,-0.004,0.209
0.417,0.015,5.000,0.377,0.000,-0.004,0.277
0.440,0.018,5.000,0.375,0.000,-0.004,0.340
0.508,0.021,5.000,0.377,0.000,-0.004,0.395
0.642,0.024,5.000,0.376,0.000,-0.004,0.451
0.658,0.027,5.000,0.377,0.000,-0.004,0.516
0.465,0.030,5.000,0.377,0.000,-0.004,0.566
0.566,0.031,5.000,0.376,0.000,-0.004,0.582
0.380,0.030,5.000,0.377,0.000,-0.004,0.567
0.379,0.028,5.000,0.377,0.000,-0.004,0.526
0.306,0.025,5.000,0.376,0.000,-0.004,0.467
0.343,0.022,5.000,0.376,0.000,-0.004,0.408
0.285,0.019,5.000,0.376,0.000,-0.004,0.360
0.392,0.017,5.000,0.376,0.000,-0.004,0.330
0.266,0.017,5.000,0.377,0.000,-0.004,0.318
0.262,0.016,5.000,0.376,0.000,-0.004,0.307
0.246,0.015,5.000,0.377,0.000,-0.004,0.290
0.099,0.014,5.000,0.376,0.000,-0.004,0.264
0.102,0.012,5.000,0.376,0.000,-0.004,0.221
0.063,0.009,5.000,0.376,0.000,-0.004,0.170
0.014,0.006,5.000,0.375,0.000,-0.004,0.120
-0.037,0.004,5.000,0.376,0.000,-0.004,0.072
0.032,0.002,5.000,0.375,0.000,-0.004,0.031
-0.075,0.000,5.000,0.369,0.000,-0.004,0.002
-0.169,-0.002,5.000,0.375,0.000,-0.004,-0.029
-0.191,-0.004,5.000,0.375,0.000,-0.004,-0.072
-0.106,-0.006,5.000,0.375,0.000,-0.004,-0.114
-0.176,-0.007,5.000,0.375,0.000,-0.004,-0.140
0.161,-0.007,5.000,0.376,0.000,-0.004,-0.135
0.332,-0.004,5.000,0.386,0.000,-0.004,-0.071
0.370,0.003,5.000,0.376,0.000,-0.004,0.049
0.377,0.009,5.000,0.375,0.000,-0.004,0.179
0.341,0.015,5.000,0.374,0.000,-0.004,0.283
0.375,0.018,5.000,0.375,0.000,-0.004,0.348
0.413,0.020,5.000,0.375,0.000,-0.004,0.383
0.374,0.021,5.000,0.372,0.000,-0.004,0.401
0.543,0.022,5.000,0.374,0.000,-0.004,0.415
0.575,0.024,5.000,0.375,0.000,-0.004,0.445
0.525,0.051,5.000,0.374,0.000,-0.004,0.484
0.429,0.054,5.000,0.374,0.000,-0.004,0.509
0.361,0.053,5.000,0.374,0.000,-0.004,0.502
0.421,0.050,5.000,0.374,0.000,-0.004,0.472
0.425,0.047,5.000,0.374,0.000,-0.004,0.443
0.332,0.044,5.000,0.375,0.000,-0.004,0.419
0.444,0.042,5.000,0.374,0.000,-0.004,0.400
0.395,0.042,5.000,0.375,0.000,-0.004,0.392
0.383,0.042,5.000,0.374,0.000,-0.004,0.392
0.432,0.042,5.000,0.374,0.000,-0.004,0.393
0.306,0.042,5.000,0.375,0.000,-0.004,0.392
0.024,0.038,5.000,0.374,0.000,-0.004,0.361
0.163,0.031,5.000,0.374,0.000,-0.004,0.290
0.146,0.023,5.000,0.374,0.000,-0.004,0.218
0.144,0.018,5.000,0.374,0.000,-0.004,0.169
0.080,0.015,5.000,0.372,0.000,-0.004,0.137
0.124,0.012,5.000,0.372,0.000,-0.004,0.115
0.099,0.011,5.000,0.374,0.000,-0.004,0.104
0.051,0.010,5.000,0.374,0.000,-0.004,0.096
0.006,0.009,5.000,0.372,0.000,-0.004,0.081
0.009,0.006,5.000,0.374,0.000,-0.004,0.059
0.162,0.005,5.000,0.374,0.000,-0.004,0.046
0.291,0.007,5.000,0.387,0.000,-0.004,0.067
0.342,0.013,5.000,0.374,0.000,-0.004,0.127
0.386,0.022,5.000,0.374,0.000,-0.004,0.206
0.432,0.030,5.000,0.374,0.000,-0.004,0.285
0.327,0.037,5.000,0.374,0.000,-0.004,0.347
0.343,0.040,5.000,0.372,0.000,-0.004,0.377
0.294,0.040,5.000,0.371,0.000,-0.004,0.378
0.363,0.039,5.000,0.372,0.000,-0.004,0.365
0.250,0.037,5.000,0.374,0.000,-0.004,0.347
0.297,0.035,5.000,0.372,0.000,-0.004,0.325
0.192,0.032,5.000,0.372,0.000,-0.004,0.299
0.198,0.028,5.000,0.374,0.000,-0.004,0.268
0.163,0.025,5.000,0.372,0.000,-0.004,0.234
0.204,0.022,5.000,0.372,0.000,-0.004,0.206
0.194,0.020,5.000,0.372,0.000,-0.004,0.190
0.093,0.019,5.000,0.372,0.000,-0.004,0.178
0.122,0.017,5.000,0.374,0.000,-0.004,0.160
0.072,0.015,5.000,0.372,0.000,-0.004,0.138
0.068,0.012,5.000,0.374,0.000,-0.004,0.114
0.065,0.010,5.000,0.372,0.000,-0.004,0.093
-0.031,0.007,5.000,0.372,0.000,-0.004,0.071
-0.102,0.004,5.000,0.374,0.000,-0.004,0.037
-0.124,-0.001,5.000,0.372,0.000,-0.004,-0.008
-0.164,-0.006,5.000,0.372,0.000,-0.004,-0.058
-0.119,-0.011,5.000,0.371,0.000,-0.004,-0.101
-0.178,-0.014,5.000,0.372,0.000,-0.004,-0.131
-0.092,-0.016,5.000,0.372,0.000,-0.004,-0.147
-0.206,-0.016,5.000,0.371,0.000,-0.004,-0.153
-0.170,-0.017,5.000,0.372,0.000,-0.004,-0.159
-0.149,-0.018,5.000,0.372,0.000,-0.004,-0.165
-0.257,-0.018,5.000,0.372,0.000,-0.004,-0.172
-0.098,-0.019,5.000,0.391,0.000,-0.004,-0.179
0.043,-0.017,5.000,0.372,0.000,-0.004,-0.164
0.298,-0.010,5.000,0.372,0.000,-0.004,-0.099
0.180,0.001,5.000,0.372,0.000,-0.004,0.005
0.227,0.011,5.000,0.372,0.000,-0.004,0.104
0.329,0.019,5.000,0.371,0.000,-0.004,0.182
0.223,0.025,5.000,0.370,0.000,-0.004,0.239
0.338,0.029,5.000,0.372,0.000,-0.004,0.275
0.280,0.031,5.000,0.372,0.000,-0.004,0.295
0.237,0.032,5.000,0.372,0.000,-0.004,0.301
0.322,0.031,5.000,0.372,0.000,-0.004,0.296
0.302,0.031,5.000,0.372,0.000,-0.004,0.294
0.151,0.030,5.000,0.372,0.000,-0.004,0.286
0.100,0.027,5.000,0.372,0.000,-0.004,0.256
0.081,0.022,5.000,0.372,0.000,-0.004,0.206
0.146,0.017,5.000,0.372,0.000,-0.004,0.158
0.111,0.014,5.000,0.372,0.000,-0.004,0.128
0.176,0.012,5.000,0.372,0.000,-0.004,0.116
0.132,0.013,5.000,0.372,0.000,-0.004,0.119
0.182,0.014,5.000,0.372,0.000,-0.004,0.129
0.089,0.015,5.000,0.374,0.000,-0.004,0.138
-0.082,0.013,5.000,0.372,0.000,-0.004,0.125
-0.245,0.007,5.000,0.372,0.000,-0.004,0.068
-0.197,-0.002,5.000,0.374,0.000,-0.004,-0.021
-0.239,-0.012,5.000,0.372,0.000,-0.004,-0.109
-0.199,-0.019,5.000,0.372,0.000,-0.004,-0.175
-0.224,-0.023,5.000,0.372,0.000,-0.004,-0.214
-0.222,-0.025,5.000,0.372,0.000,-0.004,-0.232
-0.252,-0.025,5.000,0.372,0.000,-0.004,-0.240
-0.267,-0.026,5.000,0.372,0.000,-0.004,-0.245
-0.254,-0.027,5.000,0.371,0.000,-0.004,-0.251
-0.300,-0.027,5.000,0.397,0.000,-0.004,-0.258
-0.039,-0.027,5.000,0.371,0.000,-0.004,-0.252
0.126,-0.022,5.000,0.372,0.000,-0.004,-0.203
0.155,-0.012,5.000,0.371,0.000,-0.004,-0.109
0.238,0.000,5.000,0.372,0.000,-0.004,0.001
0.321,0.011,5.000,0.372,0.000,-0.004,0.108
0.301,0.021,5.000,0.367,0.000,-0.004,0.202
0.344,0.029,5.000,0.372,0.000,-0.004,0.271
0.459,0.034,5.000,0.372,0.000,-0.004,0.324
0.465,0.040,5.000,0.372,0.000,-0.004,0.374
0.507,0.045,5.000,0.372,0.000,-0.004,0.421
0.634,0.050,5.000,0.374,0.000,-0.004,0.468
0.585,0.055,5.000,0.372,0.000,-0.004,0.518
0.431,0.058,5.000,0.372,0.000,-0.004,0.551
0.473,0.058,5.000,0.372,0.000,-0.004,0.547
0.438,0.055,5.000,0.372,0.000,-0.004,0.523
0.446,0.052,5.000,0.372,0.000,-0.004,0.494
0.375,0.049,5.000,0.372,0.000,-0.004,0.464
0.368,0.046,5.000,0.374,0.000,-0.004,0.433
0.323,0.042,5.000,0.372,0.000,-0.004,0.400
0.320,0.039,5.000,0.372,0.000,-0.004,0.369
0.346,0.037,5.000,0.372,0.000,-0.004,0.345
0.130,0.034,5.000,0.372,0.000,-0.004,0.320
0.192,0.030,5.000,0.372,0.000,-0.004,0.279
0.067,0.024,5.000,0.371,0.000,-0.004,0.228
0.055,0.018,5.000,0.372,0.000,-0.004,0.172
0.112,0.013,5.000,0.372,0.000,-0.004,0.123
0.043,0.010,5.000,0.372,0.000,-0.004,0.091
0.049,0.007,5.000,0.374,0.000,-0.004,0.069
0.052,0.006,5.000,0.372,0.000,-0.004,0.055
0.043,0.005,5.000,0.374,0.000,-0.004,0.047
-0.070,0.004,5.000,0.394,0.000,-0.004,0.036
-0.042,0.001,5.000,0.372,0.000,-0.004,0.014
0.161,0.000,5.000,0.374,0.000,-0.004,0.001
0.203,0.003,5.000,0.374,0.000,-0.004,0.025
0.397,0.009,5.000,0.374,0.000,-0.004,0.089
0.662,0.021,5.000,0.374,0.000,-0.004,0.197
0.739,0.037,5.000,0.369,0.000,-0.004,0.348
0.629,0.053,5.000,0.375,0.000,-0.004,0.499
0.748,0.065,5.000,0.375,0.000,-0.004,0.612
0.723,0.073,5.000,0.375,0.000,-0.004,0.687
0.782,0.078,5.000,0.375,0.000,-0.004,0.734
0.784,0.081,5.000,0.375,0.000,-0.004,0.763
0.754,0.083,5.000,0.375,0.000,-0.004,0.779
0.699,0.082,5.000,0.374,0.000,-0.004,0.778
0.566,0.080,5.000,0.375,0.000,-0.004,0.753
0.547,0.075,5.000,0.375,0.000,-0.004,0.703
0.598,0.069,5.000,0.375,0.000,-0.004,0.646
0.528,0.064,5.000,0.374,0.000,-0.004,0.602
0.561,0.060,5.000,0.375,0.000,-0.004,0.570
0.508,0.058,5.000,0.375,0.000,-0.004,0.548
0.524,0.056,5.000,0.375,0.000,-0.004,0.533
0.467,0.055,5.000,0.375,0.000,-0.004,0.519
0.445,0.053,5.000,0.375,0.000,-0.004,0.502
0.349,0.050,5.000,0.375,0.000,-0.004,0.476
0.152,0.045,5.000,0.374,0.000,-0.004,0.427
-0.061,0.036,5.000,0.375,0.000,-0.004,0.336
-0.101,0.022,5.000,0.375,0.000,-0.004,0.209
-0.097,0.008,5.000,0.375,0.000,-0.004,0.079
-0.096,-0.002,5.000,0.375,0.000,-0.004,-0.022
-0.155,-0.009,5.000,0.375,0.000,-0.004,-0.089
-0.168,-0.014,5.000,0.375,0.000,-0.004,-0.132
-0.239,-0.017,5.000,0.392,0.000,-0.004,-0.164
-0.252,-0.020,5.000,0.376,0.000,-0.004,-0.192
-0.221,-0.023,5.000,0.375,0.000,-0.004,-0.217
-0.186,-0.024,5.000,0.375,0.000,-0.004,-0.229
0.180,-0.022,5.000,0.375,0.000,-0.004,-0.203
0.294,-0.012,5.000,0.375,0.000,-0.004,-0.113
0.341,0.002,5.000,0.370,0.000,-0.004,0.023
0.345,0.017,5.000,0.375,0.000,-0.004,0.159
0.391,0.028,5.000,0.375,0.000,-0.004,0.267
0.375,0.036,5.000,0.375,0.000,-0.004,0.342
0.281,0.040,5.000,0.375,0.000,-0.004,0.378
0.409,0.041,5.000,0.376,0.000,-0.004,0.384
0.507,0.041,5.000,0.376,0.000,-0.004,0.391
0.393,0.043,5.000,0.375,0.000,-0.004,0.409
0.307,0.044,5.000,0.374,0.000,-0.004,0.415
0.373,0.042,5.000,0.375,0.000,-0.004,0.400
0.287,0.040,5.000,0.376,0.000,-0.004,0.377
0.375,0.038,5.000,0.375,0.000,-0.004,0.356
0.302,0.036,5.000,0.376,0.000,-0.004,0.341
0.288,0.035,5.000,0.375,0.000,-0.004,0.328
0.347,0.034,5.000,0.375,0.000,-0.004,0.317
0.348,0.033,5.000,0.375,0.000,-0.004,0.316
0.337,0.034,5.000,0.375,0.000,-0.004,0.322
0.321,0.035,5.000,0.375,0.000,-0.004,0.328
0.174,0.034,5.000,0.374,0.000,-0.004,0.321
0.060,0.030,5.000,0.375,0.000,-0.004,0.284
-0.002,0.023,5.000,0.375,0.000,-0.004,0.215
0.035,0.015,5.000,0.375,0.000,-0.004,0.137
-0.015,0.008,5.000,0.375,0.000,-0.004,0.072
0.010,0.003,5.000,0.375,0.000,-0.004,0.027
0.077,0.001,5.000,0.375,0.000,-0.004,0.005
-0.006,0.000,5.000,0.398,0.000,-0.004,0.004
-0.116,-0.000,5.000,0.375,0.000,-0.004,-0.001
0.132,-0.001,5.000,0.375,0.000,-0.004,-0.009
0.201,0.001,5.000,0.375,0.000,-0.004,0.011
0.503,0.009,5.000,0.375,0.000,-0.004,0.081
0.490,0.021,5.000,0.375,0.000,-0.004,0.196
0.539,0.034,5.000,0.370,0.000,-0.004,0.323
0.535,0.046,5.000,0.375,0.000,-0.004,0.430
0.523,0.053,5.000,0.375,0.000,-0.004,0.502
0.498,0.057,5.000,0.376,0.000,-0.004,0.538
0.548,0.058,5.000,0.374,0.000,-0.004,0.549
0.577,0.059,5.000,0.375,0.000,-0.004,0.552
0.542,0.059,5.000,0.375,0.000,-0.004,0.556
0.482,0.059,5.000,0.375,0.000,-0.004,0.552
0.374,0.056,5.000,0.375,0.000,-0.004,0.530
0.402,0.052,5.000,0.375,0.000,-0.004,0.490
0.443,0.048,5.000,0.375,0.000,-0.004,0.452
0.343,0.045,5.000,0.375,0.000,-0.004,0.424
0.349,0.042,5.000,0.375,0.000,-0.004,0.398
0.243,0.039,5.000,0.375,0.000,-0.004,0.367
0.300,0.035,5.000,0.375,0.000,-0.004,0.333
0.241,0.032,5.000,0.375,0.000,-0.004,0.302
0.122,0.029,5.000,0.375,0.000,-0.004,0.270
0.219,0.025,5.000,0.375,0.000,-0.004,0.232
-0.197,0.019,5.000,0.375,0.000,-0.004,0.181
-0.113,0.010,5.000,0.375,0.000,-0.004,0.096
-0.088,0.000,5.000,0.375,0.000,-0.004,0.003
-0.118,-0.007,5.000,0.375,0.000,-0.004,-0.064
-0.129,-0.011,5.000,0.374,0.000,-0.004,-0.106
-0.175,-0.014,5.000,0.374,0.000,-0.004,-0.132
-0.075,-0.015,5.000,0.374,0.000,-0.004,-0.145
-0.195,-0.016,5.000,0.397,0.000,-0.004,-0.147
-0.159,-0.016,5.000,0.372,0.000,-0.004,-0.150
0.113,-0.015,5.000,0.372,0.000,-0.004,-0.139
0.120,-0.009,5.000,0.374,0.000,-0.004,-0.089
0.359,-0.000,5.000,0.374,0.000,-0.004,-0.001
0.301,0.011,5.000,0.372,0.000,-0.004,0.108
0.409,0.023,5.000,0.370,0.000,-0.004,0.214
0.350,0.032,5.000,0.372,0.000,-0.004,0.299
0.459,0.038,5.000,0.372,0.000,-0.004,0.359
0.489,0.043,5.000,0.372,0.000,-0.004,0.406
0.626,0.048,5.000,0.372,0.000,-0.004,0.453
0.686,0.054,5.000,0.372,0.000,-0.004,0.512
0.554,0.060,5.000,0.374,0.000,-0.004,0.569
0.412,0.063,5.000,0.374,0.000,-0.004,0.590
0.477,0.060,5.000,0.372,0.000,-0.004,0.568
0.423,0.056,5.000,0.372,0.000,-0.004,0.529
0.498,0.052,5.000,0.374,0.000,-0.004,0.493
0.430,0.050,5.000,0.372,0.000,-0.004,0.469
0.442,0.048,5.000,0.374,0.000,-0.004,0.454
0.539,0.048,5.000,0.374,0.000,-0.004,0.449
0.435,0.048,5.000,0.374,0.000,-0.004,0.457
0.522,0.049,5.000,0.374,0.000,-0.004,0.466
0.309,0.049,5.000,0.374,0.000,-0.004,0.466
0.353,0.047,5.000,0.374,0.000,-0.004,0.443
0.241,0.042,5.000,0.372,0.000,-0.004,0.401
0.267,0.037,5.000,0.372,0.000,-0.004,0.351
0.223,0.032,5.000,0.374,0.000,-0.004,0.304
0.199,0.028,5.000,0.374,0.000,-0.004,0.265
0.227,0.025,5.000,0.374,0.000,-0.004,0.234
0.298,0.023,5.000,0.374,0.000,-0.004,0.221
0.086,0.023,5.000,0.374,0.000,-0.004,0.217
0.127,0.021,5.000,0.392,0.000,-0.004,0.199
0.315,0.019,5.000,0.372,0.000,-0.004,0.182
0.445,0.022,5.000,0.372,0.000,-0.004,0.203
0.421,0.028,5.000,0.374,0.000,-0.004,0.263
0.437,0.035,5.000,0.372,0.000,-0.004,0.330
0.439,0.041,5.000,0.372,0.000,-0.004,0.385
0.471,0.045,5.000,0.370,0.000,-0.004,0.425
0.537,0.048,5.000,0.372,0.000,-0.004,0.455
0.526,0.051,5.000,0.372,0.000,-0.004,0.484
0.516,0.054,5.000,0.372,0.000,-0.004,0.507
0.502,0.055,5.000,0.372,0.000,-0.004,0.519
0.372,0.054,5.000,0.372,0.000,-0.004,0.513
0.261,0.051,5.000,0.372,0.000,-0.004,0.477
0.405,0.045,5.000,0.372,0.000,-0.004,0.423
0.259,0.040,5.000,0.372,0.000,-0.004,0.377
0.249,0.036,5.000,0.372,0.000,-0.004,0.336
0.317,0.032,5.000,0.372,0.000,-0.004,0.301
0.221,0.030,5.000,0.371,0.000,-0.004,0.279
0.214,0.028,5.000,0.372,0.000,-0.004,0.261
0.192,0.025,5.000,0.371,0.000,-0.004,0.240
0.167,0.023,5.000,0.371,0.000,-0.004,0.219
0.054,0.020,5.000,0.371,0.000,-0.004,0.191
0.081,0.016,5.000,0.371,0.000,-0.004,0.154
0.059,0.012,5.000,0.371,0.000,-0.004,0.116
0.064,0.009,5.000,0.371,0.000,-0.004,0.087
0.063,0.007,5.000,0.370,0.000,-0.004,0.068
0.036,0.006,5.000,0.371,0.000,-0.004,0.057
-0.080,0.004,5.000,0.372,0.000,-0.004,0.041
-0.036,0.002,5.000,0.372,0.000,-0.004,0.014
-0.022,-0.001,5.000,0.372,0.000,-0.004,-0.012
0.052,-0.002,5.000,0.371,0.000,-0.004,-0.022
0.419,0.001,5.000,0.382,0.000,-0.004,0.010
0.366,0.010,5.000,0.372,0.000,-0.004,0.099
0.347,0.022,5.000,0.372,0.000,-0.004,0.206
0.477,0.032,5.000,0.371,0.000,-0.004,0.297
0.385,0.039,5.000,0.372,0.000,-0.004,0.368
0.448,0.044,5.000,0.371,0.000,-0.004,0.413
0.448,0.046,5.000,0.370,0.000,-0.004,0.438
0.554,0.049,5.000,0.372,0.000,-0.004,0.458
0.614,0.052,5.000,0.371,0.000,-0.004,0.487
0.553,0.056,5.000,0.372,0.000,-0.004,0.524
0.393,0.057,5.000,0.372,0.000,-0.004,0.541
0.498,0.056,5.000,0.374,0.000,-0.004,0.528
0.379,0.053,5.000,0.372,0.000,-0.004,0.502
0.410,0.050,5.000,0.374,0.000,-0.004,0.469
0.406,0.046,5.000,0.374,0.000,-0.004,0.437
0.338,0.044,5.000,0.374,0.000,-0.004,0.412
0.340,0.041,5.000,0.374,0.000,-0.004,0.386
0.295,0.038,5.000,0.374,0.000,-0.004,0.361
0.381,0.036,5.000,0.374,0.000,-0.004,0.341
0.247,0.035,5.000,0.375,0.000,-0.004,0.329
0.113,0.032,5.000,0.374,0.000,-0.004,0.303
0.179,0.027,5.000,0.375,0.000,-0.004,0.257
0.116,0.022,5.000,0.374,0.000,-0.004,0.210
0.116,0.018,5.000,0.375,0.000,-0.004,0.169
0.179,0.015,5.000,0.374,0.000,-0.004,0.142
0.150,0.014,5.000,0.356,0.000,-0.004,0.133
0.137,0.014,5.000,0.374,0.000,-0.004,0.135
0.250,0.015,5.000,0.374,0.000,-0.004,0.143
0.235,0.018,5.000,0.375,0.000,-0.004,0.165
0.337,0.021,5.000,0.375,0.000,-0.004,0.199
0.522,0.027,5.000,0.376,0.000,-0.004,0.253
0.509,0.035,5.000,0.380,0.000,-0.004,0.331
0.493,0.043,5.000,0.375,0.000,-0.004,0.409
0.524,0.049,5.000,0.376,0.000,-0.004,0.467
0.613,0.054,5.000,0.376,0.000,-0.004,0.510
0.597,0.058,5.000,0.376,0.000,-0.004,0.548
0.608,0.061,5.000,0.376,0.000,-0.004,0.579
0.522,0.063,5.000,0.376,0.000,-0.004,0.593
0.403,0.061,5.000,0.377,0.000,-0.004,0.580
0.442,0.057,5.000,0.377,0.000,-0.004,0.540
0.395,0.052,5.000,0.377,0.000,-0.004,0.493
0.400,0.048,5.000,0.378,0.000,-0.004,0.451
0.408,0.045,5.000,0.378,0.000,-0.004,0.420
0.317,0.042,5.000,0.377,0.000,-0.004,0.397
0.363,0.040,5.000,0.377,0.000,-0.004,0.376
0.303,0.038,5.000,0.377,0.000,-0.004,0.356
0.310,0.036,5.000,0.378,0.000,-0.004,0.339
0.173,0.033,5.000,0.378,0.000,-0.004,0.315
0.178,0.029,5.000,0.377,0.000,-0.004,0.278
-0.031,0.024,5.000,0.378,0.000,-0.004,0.224
0.046,0.016,5.000,0.377,0.000,-0.004,0.155
0.029,0.010,5.000,0.378,0.000,-0.004,0.091
0.046,0.005,5.000,0.378,0.000,-0.004,0.050
0.056,0.003,5.000,0.378,0.000,-0.004,0.030
-0.021,0.002,5.000,0.378,0.000,-0.004,0.022
0.013,0.002,5.000,0.380,0.000,-0.004,0.015
0.147,0.002,5.000,0.365,0.000,-0.004,0.017
0.307,0.005,5.000,0.380,0.000,-0.004,0.052
0.432,0.014,5.000,0.381,0.000,-0.004,0.127
0.404,0.024,5.000,0.380,0.000,-0.004,0.226
0.457,0.034,5.000,0.380,0.000,-0.004,0.319
0.473,0.042,5.000,0.381,0.000,-0.004,0.392
0.429,0.047,5.000,0.382,0.000,-0.004,0.440
0.508,0.049,5.000,0.381,0.000,-0.004,0.466
0.582,0.052,5.000,0.381,0.000,-0.004,0.488
0.569,0.055,5.000,0.382,0.000,-0.004,0.515
0.645,0.058,5.000,0.381,0.000,-0.004,0.545
0.484,0.060,5.000,0.381,0.000,-0.004,0.569
0.502,0.060,5.000,0.383,0.000,-0.004,0.569
0.466,0.058,5.000,0.382,0.000,-0.004,0.549
0.493,0.056,5.000,0.382,0.000,-0.004,0.524
0.398,0.053,5.000,0.382,0.000,-0.004,0.497
0.440,0.050,5.000,0.382,0.000,-0.004,0.469
0.370,0.047,5.000,0.382,0.000,-0.004,0.443
0.352,0.044,5.000,0.381,0.000,-0.004,0.416
0.396,0.042,5.000,0.382,0.000,-0.004,0.392
0.234,0.039,5.000,0.382,0.000,-0.004,0.370
0.079,0.035,5.000,0.382,0.000,-0.004,0.327
0.159,0.028,5.000,0.382,0.000,-0.004,0.261
0.168,0.021,5.000,0.386,0.000,-0.004,0.203
0.079,0.017,5.000,0.387,0.000,-0.004,0.162
0.070,0.014,5.000,0.393,0.000,-0.004,0.129
0.102,0.011,5.000,0.386,0.000,-0.004,0.102
0.104,0.009,5.000,0.386,0.000,-0.004,0.088
0.101,0.009,5.000,0.383,0.000,-0.004,0.086
0.255,0.010,5.000,0.382,0.000,-0.004,0.098
0.301,0.014,5.000,0.382,0.000,-0.004,0.135
0.325,0.020,5.000,0.376,0.000,-0.004,0.191
0.445,0.027,5.000,0.383,0.000,-0.004,0.255
0.405,0.034,5.000,0.382,0.000,-0.004,0.320
0.428,0.040,5.000,0.382,0.000,-0.004,0.373
0.520,0.044,5.000,0.382,0.000,-0.004,0.415
0.524,0.048,5.000,0.382,0.000,-0.004,0.453
0.629,0.052,5.000,0.382,0.000,-0.004,0.494
0.514,0.056,5.000,0.382,0.000,-0.004,0.531
0.528,0.058,5.000,0.382,0.000,-0.004,0.552
0.603,0.059,5.000,0.382,0.000,-0.004,0.558
0.538,0.060,5.000,0.382,0.000,-0.004,0.563
0.556,0.060,5.000,0.382,0.000,-0.004,0.564
0.510,0.059,5.000,0.383,0.000,-0.004,0.558
0.436,0.057,5.000,0.382,0.000,-0.004,0.542
0.478,0.055,5.000,0.382,0.000,-0.004,0.516
0.508,0.052,5.000,0.382,0.000,-0.004,0.494
0.446,0.051,5.000,0.382,0.000,-0.004,0.482
0.493,0.050,5.000,0.382,0.000,-0.004,0.474
0.244,0.048,5.000,0.381,0.000,-0.004,0.457
0.270,0.044,5.000,0.382,0.000,-0.004,0.414
0.210,0.038,5.000,0.386,0.000,-0.004,0.354
0.192,0.031,5.000,0.386,0.000,-0.004,0.294
0.190,0.026,5.000,0.387,0.000,-0.004,0.244
0.233,0.022,5.000,0.386,0.000,-0.004,0.211
0.142,0.020,5.000,0.387,0.000,-0.004,0.193
0.205,0.019,5.000,0.405,0.000,-0.004,0.182
0.314,0.020,5.000,0.387,0.000,-0.004,0.186
0.306,0.022,5.000,0.387,0.000,-0.004,0.212
0.344,0.026,5.000,0.387,0.000,-0.004,0.249
0.326,0.030,5.000,0.387,0.000,-0.004,0.285
0.384,0.034,5.000,0.387,0.000,-0.004,0.316
0.370,0.036,5.000,0.385,0.000,-0.004,0.342
0.417,0.039,5.000,0.387,0.000,-0.004,0.364
0.567,0.042,5.000,0.387,0.000,-0.004,0.393
0.499,0.046,5.000,0.387,0.000,-0.004,0.435
0.461,0.050,5.000,0.387,0.000,-0.004,0.471
0.310,0.051,5.000,0.387,0.000,-0.004,0.477
0.380,0.048,5.000,0.386,0.000,-0.004,0.452
0.338,0.044,5.000,0.387,0.000,-0.004,0.417
0.302,0.040,5.000,0.387,0.000,-0.004,0.382
0.365,0.037,5.000,0.387,0.000,-0.004,0.353
0.310,0.036,5.000,0.387,0.000,-0.004,0.335
0.251,0.034,5.000,0.387,0.000,-0.004,0.321
0.264,-8.439,5.000,0.387,0.000,-0.004,0.302
0.315,-8.002,5.000,0.387,0.000,-0.004,0.286
0.264,-7.826,5.000,0.388,0.000,-0.004,0.280
0.109,-7.456,5.000,0.387,0.000,-0.004,0.267
0.126,-6.501,5.000,0.386,0.000,-0.004,0.233
0.141,-5.342,5.000,0.387,0.000,-0.004,0.191
0.101,-4.388,5.000,0.386,0.000,-0.004,0.157
0.091,-3.631,5.000,0.370,0.000,-0.004,0.130
0.047,-2.970,5.000,0.387,0.000,-0.004,0.106
0.041,-2.336,5.000,0.387,0.000,-0.004,0.084
-0.013,-1.679,5.000,0.387,0.000,-0.004,0.060
0.212,-1.365,5.000,0.387,0.000,-0.004,0.049
0.120,-1.802,5.000,0.387,0.000,-0.004,0.064
0.283,-2.815,5.000,0.394,0.000,-0.004,0.101
0.278,-4.227,5.000,0.387,0.000,-0.004,0.151
0.334,-5.829,5.000,0.387,0.000,-0.004,0.209
0.304,-7.253,5.000,0.387,0.000,-0.004,0.260
0.287,-8.210,5.000,0.387,0.000,-0.004,0.294
0.375,-8.766,5.000,0.387,0.000,-0.004,0.314
0.306,-9.163,5.000,0.386,0.000,-0.004,0.328
0.285,-9.268,5.000,0.387,0.000,-0.004,0.332
0.163,-8.816,5.000,0.387,0.000,-0.004,0.315
0.179,-7.801,5.000,0.387,0.000,-0.004,0.279
0.122,-6.534,5.000,0.387,0.000,-0.004,0.234
0.086,-5.239,5.000,0.387,0.000,-0.004,0.187
0.132,-4.107,5.000,0.386,0.000,-0.004,0.147
0.101,-3.368,5.000,0.387,0.000,-0.004,0.121
0.107,-2.968,5.000,0.387,0.000,-0.004,0.106
0.117,-2.802,5.000,0.387,0.000,-0.004,0.100
0.095,-2.788,5.000,0.387,0.000,-0.004,0.100
0.046,-2.703,5.000,0.387,0.000,-0.004,0.097
-0.090,-2.168,5.000,0.388,0.000,-0.004,0.078
-0.057,-1.070,5.000,0.387,0.000,-0.004,0.038
-0.100,0.202,5.000,0.387,0.000,-0.004,-0.007
-0.098,1.325,5.000,0.387,0.000,-0.004,-0.047
-0.127,2.222,5.000,0.387,0.000,-0.004,-0.080
-0.098,2.845,5.000,0.387,0.000,-0.004,-0.102
-0.147,3.226,5.000,0.386,0.000,-0.004,-0.115
-0.036,3.335,5.000,0.371,0.000,-0.004,-0.119
0.178,2.631,5.000,0.387,0.000,-0.004,-0.094
0.240,0.709,5.000,0.387,0.000,-0.004,-0.025
0.230,-1.844,5.000,0.386,0.000,-0.004,0.066
0.254,-4.163,5.000,0.386,0.000,-0.004,0.149
0.277,-5.911,5.000,0.387,0.000,-0.004,0.212
0.318,-7.165,5.000,0.388,0.000,-0.004,0.256
0.442,-8.286,5.000,0.386,0.000,-0.004,0.297
0.262,-9.261,5.000,0.386,0.000,-0.004,0.331
0.349,-9.674,5.000,0.386,0.000,-0.004,0.346
0.330,-9.693,5.000,0.386,0.000,-0.004,0.347
0.249,-9.478,5.000,0.386,0.000,-0.004,0.339
0.364,-9.096,5.000,0.387,0.000,-0.004,0.325
0.198,-8.705,5.000,0.386,0.000,-0.004,0.311
0.275,-8.167,5.000,0.386,0.000,-0.004,0.292
0.232,-7.602,5.000,0.383,0.000,-0.004,0.272
0.216,-7.120,5.000,0.383,0.000,-0.004,0.255
0.184,-6.612,5.000,0.383,0.000,-0.004,0.237
0.191,-6.093,5.000,0.382,0.000,-0.004,0.218
0.232,-5.733,5.000,0.382,0.000,-0.004,0.205
-0.005,-5.277,5.000,0.382,0.000,-0.004,0.189
-0.076,-4.027,5.000,0.382,0.000,-0.004,0.144
-0.054,-2.120,5.000,0.381,0.000,-0.004,0.076
-0.135,-0.204,5.000,0.381,0.000,-0.004,0.007
-0.149,1.509,5.000,0.382,0.000,-0.004,-0.054
-0.065,2.752,5.000,0.404,0.000,-0.004,-0.098
-0.080,3.241,5.000,0.382,0.000,-0.004,-0.116
-0.109,3.234,5.000,0.382,0.000,-0.004,-0.116
-0.195,3.282,5.000,0.381,0.000,-0.004,-0.117
0.115,3.153,5.000,0.381,0.000,-0.004,-0.113
0.106,2.078,5.000,0.381,0.000,-0.004,-0.074
0.180,0.220,5.000,0.377,0.000,-0.004,-0.008
0.075,-1.586,5.000,0.381,0.000,-0.004,0.057
0.217,-2.935,5.000,0.381,0.000,-0.004,0.105
0.120,-3.891,5.000,0.381,0.000,-0.004,0.139
0.173,-4.441,5.000,0.382,0.000,-0.004,0.159
0.326,-4.954,5.000,0.382,0.000,-0.004,0.177
0.143,-5.625,5.000,0.381,0.000,-0.004,0.201
0.095,-5.753,5.000,0.381,0.000,-0.004,0.206
0.086,-5.113,5.000,0.382,0.000,-0.004,0.183
0.096,-4.193,5.000,0.381,0.000,-0.004,0.150
0.058,-3.328,5.000,0.381,0.000,-0.004,0.119
0.094,-2.650,5.000,0.381,0.000,-0.004,0.095
0.074,-2.247,5.000,0.382,0.000,-0.004,0.080
-0.047,-1.851,5.000,0.381,0.000,-0.004,0.066
0.004,-1.193,5.000,0.382,0.000,-0.004,0.043
-0.017,-0.512,5.000,0.381,0.000,-0.004,0.018
-0.057,0.065,5.000,0.381,0.000,-0.004,-0.002
-0.068,0.646,5.000,0.382,0.000,-0.004,-0.023
-0.261,1.524,5.000,0.381,0.000,-0.004,-0.055
-0.191,2.879,5.000,0.380,0.000,-0.004,-0.103
-0.288,4.372,5.000,0.381,0.000,-0.004,-0.156
-0.225,5.665,5.000,0.381,0.000,-0.004,-0.203
-0.350,6.715,5.000,0.381,0.000,-0.004,-0.240
-0.195,7.453,5.000,0.381,0.000,-0.004,-0.267
-0.001,7.219,5.000,0.381,0.000,-0.004,-0.258
0.209,5.320,5.000,0.394,0.000,-0.004,-0.190
0.145,2.207,5.000,0.381,0.000,-0.004,-0.079
0.270,-1.036,5.000,0.381,0.000,-0.004,0.037
0.291,-3.896,5.000,0.381,0.000,-0.004,0.139
0.280,-6.149,5.000,0.381,0.000,-0.004,0.220
0.350,-7.698,5.000,0.381,0.000,-0.004,0.275
0.357,-8.785,5.000,0.380,0.000,-0.004,0.314
0.310,-9.463,5.000,0.381,0.000,-0.004,0.339
0.384,-9.770,5.000,0.381,0.000,-0.004,0.350
0.306,-9.876,5.000,0.381,0.000,-0.004,0.353
0.254,-9.637,5.000,0.381,0.000,-0.004,0.345
0.216,-8.929,5.000,0.381,0.000,-0.004,0.319
0.231,-7.992,5.000,0.381,0.000,-0.004,0.286
0.243,-7.191,5.000,0.381,0.000,-0.004,0.257
0.180,-6.605,5.000,0.381,0.000,-0.004,0.236
0.161,-6.031,5.000,0.381,0.000,-0.004,0.216
0.184,-5.469,5.000,0.381,0.000,-0.004,0.196
0.112,-4.975,5.000,0.381,0.000,-0.004,0.178
0.113,-4.428,5.000,0.382,0.000,-0.004,0.158
-0.031,-3.624,5.000,0.381,0.000,-0.004,0.130
-0.273,-1.995,5.000,0.381,0.000,-0.004,0.071
-0.259,0.653,5.000,0.382,0.000,-0.004,-0.023
-0.304,3.549,5.000,0.381,0.000,-0.004,-0.127
-0.239,5.862,5.000,0.382,0.000,-0.004,-0.210
-0.273,7.258,5.000,0.381,0.000,-0.004,-0.260
-0.333,8.011,5.000,0.369,0.000,-0.004,-0.287
-0.185,8.305,5.000,0.387,0.000,-0.004,-0.297
-0.174,7.899,5.000,0.387,0.000,-0.004,-0.283
-0.086,6.838,5.000,0.387,0.000,-0.004,-0.245
-0.020,5.312,5.000,0.387,0.000,-0.004,-0.190
0.068,3.426,5.000,0.387,0.000,-0.004,-0.123
-0.030,1.597,5.000,0.389,0.000,-0.004,-0.057
0.075,0.249,5.000,0.386,0.000,-0.004,-0.009
0.038,-0.683,5.000,0.386,0.000,-0.004,0.024
0.129,-1.411,5.000,0.387,0.000,-0.004,0.050
0.103,-2.072,5.000,0.386,0.000,-0.004,0.074
0.043,-2.503,5.000,0.387,0.000,-0.004,0.090
0.091,-2.558,5.000,0.387,0.000,-0.004,0.092
0.126,-2.556,5.000,0.387,0.000,-0.004,0.091
0.087,-2.666,5.000,0.387,0.000,-0.004,0.095
0.185,-2.891,5.000,0.387,0.000,-0.004,0.103
0.045,-3.143,5.000,0.387,0.000,-0.004,0.112
0.090,-3.111,5.000,0.387,0.000,-0.004,0.111
0.105,-2.898,5.000,0.386,0.000,-0.004,0.104
0.015,-2.630,5.000,0.387,0.000,-0.004,0.094
0.105,-2.277,5.000,0.386,0.000,-0.004,0.081
-0.148,-1.690,5.000,0.387,0.000,-0.004,0.060
-0.104,-0.505,5.000,0.386,0.000,-0.004,0.018
-0.116,0.958,5.000,0.386,0.000,-0.004,-0.034
-0.098,2.117,5.000,0.387,0.000,-0.004,-0.076
-0.156,2.913,5.000,0.400,0.000,-0.004,-0.104
-0.155,3.520,5.000,0.386,0.000,-0.004,-0.126
-0.166,4.008,5.000,0.387,0.000,-0.004,-0.143
-0.144,4.321,5.000,0.386,0.000,-0.004,-0.155
-0.133,4.404,5.000,0.387,0.000,-0.004,-0.158
-0.041,4.129,5.000,0.386,0.000,-0.004,-0.148
-0.012,3.379,5.000,0.382,0.000,-0.004,-0.121
-0.039,2.391,5.000,0.387,0.000,-0.004,-0.086
-0.009,1.532,5.000,0.386,0.000,-0.004,-0.055
-0.046,0.949,5.000,0.387,0.000,-0.004,-0.034
0.078,0.496,5.000,0.387,0.000,-0.004,-0.018
0.146,-0.265,5.000,0.387,0.000,-0.004,0.009
0.001,-1.174,5.000,0.387,0.000,-0.004,0.042
-0.069,-1.425,5.000,0.387,0.000,-0.004,0.051
-0.051,-0.861,5.000,0.387,0.000,-0.004,0.031
-0.161,0.172,5.000,0.386,0.000,-0.004,-0.006
-0.096,1.394,5.000,0.386,0.000,-0.004,-0.050
-0.161,2.476,5.000,0.386,0.000,-0.004,-0.089
-0.121,3.272,5.000,0.387,0.000,-0.004,-0.117
-0.158,3.782,5.000,0.387,0.000,-0.004,-0.135
-0.225,4.213,5.000,0.387,0.000,-0.004,-0.151
-0.221,4.790,5.000,0.387,0.000,-0.004,-0.171
-0.115,5.208,5.000,0.386,0.000,-0.004,-0.186
-0.207,5.242,5.000,0.387,0.000,-0.004,-0.188
-0.302,5.393,5.000,0.386,0.000,-0.004,-0.193
-0.267,5.981,5.000,0.386,0.000,-0.004,-0.214
-0.345,6.797,5.000,0.387,0.000,-0.004,-0.243
-0.290,7.626,5.000,0.387,0.000,-0.004,-0.273
-0.356,8.316,5.000,0.387,0.000,-0.004,-0.298
-0.244,8.712,5.000,0.386,0.000,-0.004,-0.312
-0.135,8.423,5.000,0.387,0.000,-0.004,-0.301
0.060,6.999,5.000,0.394,0.000,-0.004,-0.250
0.232,4.271,5.000,0.388,0.000,-0.004,-0.153
0.261,0.660,5.000,0.387,0.000,-0.004,-0.024
0.319,-2.949,5.000,0.386,0.000,-0.004,0.106
0.293,-5.874,5.000,0.386,0.000,-0.004,0.210
0.292,-7.785,5.000,0.386,0.000,-0.004,0.279
0.309,-8.755,5.000,0.387,0.000,-0.004,0.313
0.289,-9.090,5.000,0.386,0.000,-0.004,0.325
0.300,-9.038,5.000,0.386,0.000,-0.004,0.323
0.244,-8.735,5.000,0.386,0.000,-0.004,0.313
0.264,-8.257,5.000,0.386,0.000,-0.004,0.295
0.230,-7.732,5.000,0.386,0.000,-0.004,0.277
0.260,-7.286,5.000,0.386,0.000,-0.004,0.261
0.230,-6.980,5.000,0.386,0.000,-0.004,0.250
0.255,-6.802,5.000,0.386,0.000,-0.004,0.243
0.272,-6.789,5.000,0.386,0.000,-0.004,0.243
0.213,-6.851,5.000,0.386,0.000,-0.004,0.245
0.244,-6.811,5.000,0.385,0.000,-0.004,0.244
0.240,-6.734,5.000,0.386,0.000,-0.004,0.241
0.021,-6.322,5.000,0.386,0.000,-0.004,0.226
-0.243,-4.651,5.000,0.385,0.000,-0.004,0.166
-0.253,-1.532,5.000,0.386,0.000,-0.004,0.055
-0.302,2.033,5.000,0.386,0.000,-0.004,-0.073
-0.208,4.943,5.000,0.385,0.000,-0.004,-0.177
-0.236,6.657,5.000,0.385,0.000,-0.004,-0.238
0.028,6.901,5.000,0.371,0.000,-0.004,-0.247
0.093,5.461,5.000,0.386,0.000,-0.004,-0.195
0.107,2.925,5.000,0.386,0.000,-0.004,-0.105
0.237,0.144,5.000,0.386,0.000,-0.004,-0.005
0.271,-2.590,5.000,0.386,0.000,-0.004,0.093
0.262,-4.954,5.000,0.387,0.000,-0.004,0.177
0.219,-6.525,5.000,0.386,0.000,-0.004,0.233
0.242,-7.234,5.000,0.385,0.000,-0.004,0.259
0.258,-7.417,5.000,0.387,0.000,-0.004,0.265
0.279,-7.453,5.000,0.386,0.000,-0.004,0.267
0.256,-7.474,5.000,0.386,0.000,-0.004,0.267
0.238,-7.409,5.000,0.386,0.000,-0.004,0.265
0.239,-7.221,5.000,0.386,0.000,-0.004,0.258
0.204,-6.940,5.000,0.386,0.000,-0.004,0.248
0.286,-6.709,5.000,0.386,0.000,-0.004,0.240
0.240,-6.700,5.000,0.386,0.000,-0.004,0.240
0.193,-6.695,5.000,0.386,0.000,-0.004,0.240
0.202,-6.466,5.000,0.386,0.000,-0.004,0.231
0.248,-6.223,5.000,0.386,0.000,-0.004,0.223
0.167,-6.069,5.000,0.386,0.000,-0.004,0.217
0.045,-5.584,5.000,0.386,0.000,-0.004,0.200
-0.031,-4.383,5.000,0.386,0.000,-0.004,0.157
-0.070,-2.622,5.000,0.386,0.000,-0.004,0.094
-0.105,-0.722,5.000,0.386,0.000,-0.004,0.026
-0.142,1.024,5.000,0.387,0.000,-0.004,-0.037
-0.057,2.314,5.000,0.406,0.000,-0.004,-0.083
0.162,2.478,5.000,0.386,0.000,-0.004,-0.089
0.211,1.119,5.000,0.386,0.000,-0.004,-0.040
0.316,-1.307,5.000,0.386,0.000,-0.004,0.047
0.240,-3.922,5.000,0.386,0.000,-0.004,0.140
0.376,-6.129,5.000,0.386,0.000,-0.004,0.219
0.354,-7.912,5.000,0.385,0.000,-0.004,0.283
0.363,-9.241,5.000,0.386,0.000,-0.004,0.331
0.350,-10.013,5.000,0.386,0.000,-0.004,0.358
0.365,-10.343,5.000,0.386,0.000,-0.004,0.370
0.302,-10.317,5.000,0.387,0.000,-0.004,0.369
0.199,-9.772,5.000,0.386,0.000,-0.004,0.350
0.279,-8.808,5.000,0.386,0.000,-0.004,0.315
0.244,-7.933,5.000,0.386,0.000,-0.004,0.284
0.182,-7.224,5.000,0.386,0.000,-0.004,0.258
0.347,-6.772,5.000,0.386,0.000,-0.004,0.242
0.156,-6.677,5.000,0.386,0.000,-0.004,0.239
0.285,-6.612,5.000,0.386,0.000,-0.004,0.237
0.241,-6.617,5.000,0.386,0.000,-0.004,0.237
0.260,-6.754,5.000,0.386,0.000,-0.004,0.242
0.179,-6.766,5.000,0.386,0.000,-0.004,0.242
0.077,-6.299,5.000,0.386,0.000,-0.004,0.225
-0.072,-4.989,5.000,0.386,0.000,-0.004,0.179
-0.019,-3.033,5.000,0.386,0.000,-0.004,0.109
-0.057,-1.132,5.000,0.385,0.000,-0.004,0.041
-0.090,0.374,5.000,0.363,0.000,-0.004,-0.013
-0.066,1.473,5.000,0.386,0.000,-0.004,-0.053
0.080,1.842,5.000,0.386,0.000,-0.004,-0.066
0.116,1.192,5.000,0.386,0.000,-0.004,-0.043
0.364,-0.549,5.000,0.386,0.000,-0.004,0.020
0.365,-3.262,5.000,0.388,0.000,-0.004,0.117
0.619,-6.603,5.000,0.392,0.000,-0.004,0.236
0.537,-10.136,5.000,0.381,0.000,-0.004,0.363
0.583,-13.120,5.000,0.386,0.000,-0.004,0.469
0.571,-15.123,5.000,0.387,0.000,-0.004,0.541
0.561,-16.216,5.000,0.387,0.000,-0.004,0.580
0.647,-16.728,5.000,0.386,0.000,-0.004,0.599
0.567,-16.998,5.000,0.386,0.000,-0.004,0.608
0.633,-17.078,5.000,0.386,0.000,-0.004,0.611
0.541,-16.987,5.000,0.385,0.000,-0.004,0.608
0.610,-16.760,5.000,0.385,0.000,-0.004,0.600
0.546,-16.498,5.000,0.386,0.000,-0.004,0.590
0.564,-16.214,5.000,0.386,0.000,-0.004,0.580
0.529,-15.881,5.000,0.381,0.000,-0.004,0.568
0.542,-15.542,5.000,0.382,0.000,-0.004,0.556
0.487,-15.172,5.000,0.382,0.000,-0.004,0.543
0.560,-14.838,5.000,0.381,0.000,-0.004,0.531
0.351,-14.399,5.000,0.382,0.000,-0.004,0.515
0.400,-13.516,5.000,0.381,0.000,-0.004,0.484
0.116,-11.973,5.000,0.382,0.000,-0.004,0.428
0.069,-9.543,5.000,0.382,0.000,-0.004,0.341
0.079,-6.687,5.000,0.386,0.000,-0.004,0.239
0.082,-4.303,5.000,0.381,0.000,-0.004,0.154
0.092,-2.761,5.000,0.382,0.000,-0.004,0.099
0.184,-2.170,5.000,0.382,0.000,-0.004,0.078
0.412,-2.872,5.000,0.381,0.000,-0.004,0.103
0.374,-4.851,5.000,0.375,0.000,-0.004,0.174
0.508,-7.400,5.000,0.381,0.000,-0.004,0.265
0.511,-9.976,5.000,0.381,0.000,-0.004,0.357
0.498,-12.149,5.000,0.381,0.000,-0.004,0.435
0.463,-13.508,5.000,0.381,0.000,-0.004,0.483
0.504,-14.100,5.000,0.381,0.000,-0.004,0.505
0.485,-14.251,5.000,0.382,0.000,-0.004,0.510
0.520,-14.235,5.000,0.382,0.000,-0.004,0.509
0.569,-14.320,5.000,0.381,0.000,-0.004,0.512
0.480,-14.505,5.000,0.381,0.000,-0.004,0.519
0.484,-14.473,5.000,0.381,0.000,-0.004,0.518
0.468,-14.188,5.000,0.381,0.000,-0.004,0.508
0.447,-13.775,5.000,0.382,0.000,-0.004,0.493
0.347,-13.136,5.000,0.382,0.000,-0.004,0.470
0.385,-12.240,5.000,0.381,0.000,-0.004,0.438
0.323,-11.304,5.000,0.382,0.000,-0.004,0.404
0.293,-10.381,5.000,0.382,0.000,-0.004,0.371
0.395,-9.657,5.000,0.382,0.000,-0.004,0.346
0.196,-9.157,5.000,0.385,0.000,-0.004,0.328
-0.004,-8.026,5.000,0.385,0.000,-0.004,0.287
-0.103,-5.696,5.000,0.387,0.000,-0.004,0.204
-0.146,-2.649,5.000,0.386,0.000,-0.004,0.095
-0.155,0.299,5.000,0.386,0.000,-0.004,-0.011
-0.112,2.510,5.000,0.386,0.000,-0.004,-0.090
0.162,3.244,5.000,0.386,0.000,-0.004,-0.116
0.267,1.948,5.000,0.399,0.000,-0.004,-0.070
0.236,-0.706,5.000,0.386,0.000,-0.004,0.025
0.282,-3.463,5.000,0.386,0.000,-0.004,0.124
0.416,-5.923,5.000,0.386,0.000,-0.004,0.212
0.312,-8.008,5.000,0.386,0.000,-0.004,0.287
0.300,-9.266,5.000,0.385,0.000,-0.004,0.332
0.304,-9.633,5.000,0.385,0.000,-0.004,0.345
0.345,-9.577,5.000,0.386,0.000,-0.004,0.343
0.416,-9.616,5.000,0.386,0.000,-0.004,0.344
0.347,-9.883,5.000,0.386,0.000,-0.004,0.354
0.304,-9.999,5.000,0.385,0.000,-0.004,0.358
0.346,-9.825,5.000,0.386,0.000,-0.004,0.352
0.296,-9.548,5.000,0.386,0.000,-0.004,0.342
0.274,-9.155,5.000,0.386,0.000,-0.004,0.328
0.221,-8.555,5.000,0.386,0.000,-0.004,0.306
0.258,-7.854,5.000,0.385,0.000,-0.004,0.281
0.219,-7.251,5.000,0.386,0.000,-0.004,0.259
0.192,-6.722,5.000,0.386,0.000,-0.004,0.241
0.228,-6.258,5.000,0.382,0.000,-0.004,0.224
0.008,-5.638,5.000,0.381,0.000,-0.004,0.202
-0.211,-4.032,5.000,0.382,0.000,-0.004,0.144
-0.228,-1.223,5.000,0.382,0.000,-0.004,0.044
-0.229,1.865,5.000,0.381,0.000,-0.004,-0.067
-0.237,4.363,5.000,0.381,0.000,-0.004,-0.156
-0.286,6.098,5.000,0.381,0.000,-0.004,-0.218
-0.247,7.180,5.000,0.364,0.000,-0.004,-0.257
-0.211,7.594,5.000,0.382,0.000,-0.004,-0.272
-0.210,7.417,5.000,0.381,0.000,-0.004,-0.265
-0.141,6.838,5.000,0.382,0.000,-0.004,-0.245
-0.125,5.955,5.000,0.382,0.000,-0.004,-0.213
-0.083,4.910,5.000,0.382,0.000,-0.004,-0.176
-0.084,3.882,5.000,0.383,0.000,-0.004,-0.139
-0.036,2.965,5.000,0.381,0.000,-0.004,-0.106
-0.029,2.149,5.000,0.381,0.000,-0.004,-0.077
0.091,1.263,5.000,0.382,0.000,-0.004,-0.045
0.027,0.249,5.000,0.381,0.000,-0.004,-0.009
0.043,-0.589,5.000,0.381,0.000,-0.004,0.021
0.018,-1.043,5.000,0.382,0.000,-0.004,0.037
0.004,-1.133,5.000,0.381,0.000,-0.004,0.041
-0.032,-0.884,5.000,0.382,0.000,-0.004,0.032
-0.004,-0.448,5.000,0.381,0.000,-0.004,0.016
-0.028,-0.028,5.000,0.386,0.000,-0.004,0.001
-0.083,0.411,5.000,0.386,0.000,-0.004,-0.015
-0.067,0.952,5.000,0.385,0.000,-0.004,-0.034
-0.032,1.384,5.000,0.386,0.000,-0.004,-0.050
-0.057,1.557,5.000,0.386,0.000,-0.004,-0.056
-0.140,1.743,5.000,0.385,0.000,-0.004,-0.062
-0.135,2.207,5.000,0.386,0.000,-0.004,-0.079
-0.200,2.916,5.000,0.385,0.000,-0.004,-0.104
-0.172,3.726,5.000,0.386,0.000,-0.004,-0.133
-0.234,4.504,5.000,0.406,0.000,-0.004,-0.161
-0.102,5.014,5.000,0.385,0.000,-0.004,-0.179
-0.051,4.846,5.000,0.386,0.000,-0.004,-0.173
-0.065,4.043,5.000,0.386,0.000,-0.004,-0.145
0.050,2.918,5.000,0.386,0.000,-0.004,-0.104
0.052,1.554,5.000,0.385,0.000,-0.004,-0.056
0.131,0.079,5.000,0.382,0.000,-0.004,-0.003
0.184,-1.450,5.000,0.386,0.000,-0.004,0.052
0.176,-2.931,5.000,0.385,0.000,-0.004,0.105
0.193,-4.120,5.000,0.386,0.000,-0.004,0.147
0.302,-5.117,5.000,0.385,0.000,-0.004,0.183
0.373,-6.308,5.000,0.386,0.000,-0.004,0.226
0.324,-7.638,5.000,0.386,0.000,-0.004,0.273
0.243,-8.519,5.000,0.386,0.000,-0.004,0.305
0.350,-8.804,5.000,0.386,0.000,-0.004,0.315
0.281,-8.868,5.000,0.385,0.000,-0.004,0.317
0.289,-8.777,5.000,0.386,0.000,-0.004,0.314
0.314,-8.591,5.000,0.386,0.000,-0.004,0.307
0.300,-8.484,5.000,0.386,0.000,-0.004,0.304
0.256,-8.359,5.000,0.386,0.000,-0.004,0.299
0.320,-8.190,5.000,0.386,0.000,-0.004,0.293
0.318,-8.185,5.000,0.386,0.000,-0.004,0.293
0.303,-8.329,5.000,0.386,0.000,-0.004,0.298
0.215,-8.298,5.000,0.386,0.000,-0.004,0.297
0.199,-7.841,5.000,0.385,0.000,-0.004,0.281
0.187,-7.083,5.000,0.375,0.000,-0.004,0.253
0.216,-6.358,5.000,0.386,0.000,-0.004,0.228
0.225,-5.921,5.000,0.385,0.000,-0.004,0.212
0.201,-5.757,5.000,0.386,0.000,-0.004,0.206
0.355,-5.953,5.000,0.386,0.000,-0.004,0.213
0.441,-6.898,5.000,0.386,0.000,-0.004,0.247
0.521,-8.638,5.000,0.394,0.000,-0.004,0.309
0.671,-10.982,5.000,0.386,0.000,-0.004,0.393
0.721,-13.757,5.000,0.386,0.000,-0.004,0.492
0.696,-16.427,5.000,0.386,0.000,-0.004,0.588
0.712,-18.422,5.000,0.386,0.000,-0.004,0.659
0.805,-19.797,5.000,0.385,0.000,-0.004,0.708
0.745,-20.803,5.000,0.386,0.000,-0.004,0.744
0.718,-21.304,5.000,0.386,0.000,-0.004,0.762
0.538,-20.953,5.000,0.386,0.000,-0.004,0.750
0.561,-19.684,5.000,0.386,0.000,-0.004,0.704
0.499,-17.985,5.000,0.387,0.000,-0.004,0.644
0.470,-16.290,5.000,0.387,0.000,-0.004,0.583
0.497,-14.854,5.000,0.387,0.000,-0.004,0.532
0.446,3.346,5.000,0.386,0.000,-0.004,0.495
0.427,3.168,5.000,0.387,0.000,-0.004,0.469
0.464,3.041,5.000,0.386,0.000,-0.004,0.450
0.423,2.974,5.000,0.386,0.000,-0.004,0.440
0.449,2.943,5.000,0.386,0.000,-0.004,0.436
0.386,2.914,5.000,0.387,0.000,-0.004,0.431
0.229,2.786,5.000,0.386,0.000,-0.004,0.412
0.169,2.464,5.000,0.386,0.000,-0.004,0.365
0.088,1.987,5.000,0.386,0.000,-0.004,0.294
0.180,1.504,5.000,0.386,0.000,-0.004,0.223
0.225,1.199,5.000,0.386,0.000,-0.004,0.178
0.088,1.067,5.000,0.386,0.000,-0.004,0.158
0.286,1.031,5.000,0.370,0.000,-0.004,0.153
0.426,1.213,5.000,0.386,0.000,-0.004,0.180
0.463,1.659,5.000,0.386,0.000,-0.004,0.246
0.641,2.276,5.000,0.386,0.000,-0.004,0.337
0.580,2.955,5.000,0.386,0.000,-0.004,0.437
0.629,3.538,5.000,0.386,0.000,-0.004,0.524
0.618,3.945,5.000,0.387,0.000,-0.004,0.584
0.681,4.211,5.000,0.386,0.000,-0.004,0.623
0.745,4.423,5.000,0.386,0.000,-0.004,0.655
0.694,4.618,5.000,0.386,0.000,-0.004,0.684
0.603,4.704,5.000,0.386,0.000,-0.004,0.696
0.641,4.639,5.000,0.386,0.000,-0.004,0.687
0.609,4.503,5.000,0.386,0.000,-0.004,0.667
0.570,4.343,5.000,0.386,0.000,-0.004,0.643
0.597,4.177,5.000,0.386,0.000,-0.004,0.618
0.519,4.023,5.000,0.386,0.000,-0.004,0.596
0.468,3.838,5.000,0.386,0.000,-0.004,0.568
0.435,3.596,5.000,0.386,0.000,-0.004,0.532
0.413,3.331,5.000,0.386,0.000,-0.004,0.493
0.446,3.103,5.000,0.386,0.000,-0.004,0.459
0.317,2.912,5.000,0.387,0.000,-0.004,0.431
0.088,2.595,5.000,0.386,0.000,-0.004,0.384
0.202,2.105,5.000,0.386,0.000,-0.004,0.312
0.155,1.637,5.000,0.386,0.000,-0.004,0.242
0.110,1.285,5.000,0.386,0.000,-0.004,0.190
0.138,1.025,5.000,0.406,0.000,-0.004,0.152
0.086,0.853,5.000,0.386,0.000,-0.004,0.126
0.013,0.701,5.000,0.386,0.000,-0.004,0.104
0.132,0.563,5.000,0.386,0.000,-0.004,0.083
0.150,0.541,5.000,0.386,0.000,-0.004,0.080
0.240,0.677,5.000,0.387,0.000,-0.004,0.100
0.172,0.904,5.000,0.383,0.000,-0.004,0.134
0.190,1.104,5.000,0.386,0.000,-0.004,0.163
0.200,1.233,5.000,0.386,0.000,-0.004,0.183
0.165,1.300,5.000,0.386,0.000,-0.004,0.193
0.200,1.313,5.000,0.386,0.000,-0.004,0.194
0.211,1.318,5.000,0.386,0.000,-0.004,0.195
0.196,1.336,5.000,0.385,0.000,-0.004,0.198
0.082,1.299,5.000,0.386,0.000,-0.004,0.192
0.140,1.172,5.000,0.386,0.000,-0.004,0.173
0.060,1.003,5.000,0.385,0.000,-0.004,0.148
0.110,0.835,5.000,0.386,0.000,-0.004,0.124
0.040,0.688,5.000,0.386,0.000,-0.004,0.102
0.052,0.555,5.000,0.387,0.000,-0.004,0.082
0.011,0.423,5.000,0.386,0.000,-0.004,0.063
0.025,0.302,5.000,0.386,0.000,-0.004,0.045
0.020,0.207,5.000,0.386,0.000,-0.004,0.031
-0.048,0.121,5.000,0.386,0.000,-0.004,0.018
0.016,0.029,5.000,0.386,0.000,-0.004,0.004
-0.151,-0.089,5.000,0.385,0.000,-0.004,-0.013
-0.130,-0.292,5.000,0.381,0.000,-0.004,-0.043
-0.108,-0.526,5.000,0.386,0.000,-0.004,-0.078
-0.220,-0.735,5.000,0.386,0.000,-0.004,-0.109
-0.159,-0.940,5.000,0.386,0.000,-0.004,-0.139
-0.166,-1.093,5.000,0.385,0.000,-0.004,-0.162
0.011,-1.091,5.000,0.386,0.000,-0.004,-0.162
0.042,-0.865,5.000,0.392,0.000,-0.004,-0.128
0.101,-0.471,5.000,0.387,0.000,-0.004,-0.070
0.177,-0.005,5.000,0.386,0.000,-0.004,-0.001
0.141,0.450,5.000,0.386,0.000,-0.004,0.067
0.168,0.801,5.000,0.386,0.000,-0.004,0.119
0.238,1.057,5.000,0.385,0.000,-0.004,0.156
0.236,1.275,5.000,0.386,0.000,-0.004,0.189
0.261,1.462,5.000,0.386,0.000,-0.004,0.216
0.239,1.599,5.000,0.385,0.000,-0.004,0.237
0.329,1.710,5.000,0.386,0.000,-0.004,0.253
0.304,1.836,5.000,0.386,0.000,-0.004,0.272
0.292,1.951,5.000,0.386,0.000,-0.004,0.289
0.296,2.014,5.000,0.385,0.000,-0.004,0.298
0.278,2.028,5.000,0.385,0.000,-0.004,0.300
0.371,2.043,5.000,0.386,0.000,-0.004,0.303
0.328,2.106,5.000,0.387,0.000,-0.004,0.312
0.344,2.185,5.000,0.386,0.000,-0.004,0.323
0.358,2.252,5.000,0.386,0.000,-0.004,0.333
0.316,2.298,5.000,0.386,0.000,-0.004,0.340
0.239,2.264,5.000,0.381,0.000,-0.004,0.335
0.244,2.123,5.000,0.381,0.000,-0.004,0.314
0.229,1.935,5.000,0.381,0.000,-0.004,0.286
0.179,1.741,5.000,0.381,0.000,-0.004,0.258
0.168,1.540,5.000,0.381,0.000,-0.004,0.228
0.299,1.409,5.000,0.381,0.000,-0.004,0.209
0.368,1.476,5.000,0.371,0.000,-0.004,0.218
0.324,1.706,5.000,0.382,0.000,-0.004,0.253
0.402,1.977,5.000,0.382,0.000,-0.004,0.293
0.412,2.250,5.000,0.381,0.000,-0.004,0.333
0.313,2.457,5.000,0.381,0.000,-0.004,0.364
0.373,2.530,5.000,0.381,0.000,-0.004,0.375
0.396,2.545,5.000,0.381,0.000,-0.004,0.377
0.398,2.575,5.000,0.381,0.000,-0.004,0.381
0.319,2.582,5.000,0.380,0.000,-0.004,0.382
0.274,2.493,5.000,0.381,0.000,-0.004,0.369
0.237,2.299,5.000,0.381,0.000,-0.004,0.340
0.231,2.053,5.000,0.381,0.000,-0.004,0.304
0.174,1.801,5.000,0.381,0.000,-0.004,0.267
0.162,1.553,5.000,0.381,0.000,-0.004,0.230
0.102,1.310,5.000,0.382,0.000,-0.004,0.194
0.074,1.062,5.000,0.381,0.000,-0.004,0.157
0.109,0.840,5.000,0.381,0.000,-0.004,0.124
0.071,0.685,5.000,0.381,0.000,-0.004,0.101
0.061,0.577,5.000,0.381,0.000,-0.004,0.085
0.079,0.499,5.000,0.381,0.000,-0.004,0.074
-0.185,0.356,5.000,0.381,0.000,-0.004,0.053
-0.165,0.016,5.000,0.381,0.000,-0.004,0.002
-0.124,-0.405,5.000,0.381,0.000,-0.004,-0.060
-0.190,-0.742,5.000,0.381,0.000,-0.004,-0.110
-0.165,-0.987,5.000,0.381,0.000,-0.004,-0.146
-0.079,-1.102,5.000,0.393,0.000,-0.004,-0.163
-0.108,-1.060,5.000,0.380,0.000,-0.004,-0.157
0.008,-0.899,5.000,0.380,0.000,-0.004,-0.133
0.083,-0.610,5.000,0.380,0.000,-0.004,-0.090
0.043,-0.242,5.000,0.380,0.000,-0.004,-0.036
0.162,0.117,5.000,0.380,0.000,-0.004,0.017
0.130,0.454,5.000,0.378,0.000,-0.004,0.067
0.302,0.792,5.000,0.378,0.000,-0.004,0.117
0.368,1.205,5.000,0.380,0.000,-0.004,0.178
0.364,1.674,5.000,0.381,0.000,-0.004,0.248
0.358,2.073,5.000,0.380,0.000,-0.004,0.307
0.449,2.375,5.000,0.380,0.000,-0.004,0.352
0.398,2.611,5.000,0.378,0.000,-0.004,0.386
0.354,2.737,5.000,0.380,0.000,-0.004,0.405
0.440,2.761,5.000,0.380,0.000,-0.004,0.409
0.341,2.746,5.000,0.380,0.000,-0.004,0.407
0.410,2.699,5.000,0.380,0.000,-0.004,0.400
0.363,2.647,5.000,0.380,0.000,-0.004,0.392
0.377,2.599,5.000,0.380,0.000,-0.004,0.385
0.380,2.559,5.000,0.380,0.000,-0.004,0.379
0.305,2.510,5.000,0.380,0.000,-0.004,0.372
0.261,2.390,5.000,0.378,0.000,-0.004,0.354
0.302,2.218,5.000,0.378,0.000,-0.004,0.328
0.296,2.077,5.000,0.380,0.000,-0.004,0.308
0.250,1.978,5.000,0.380,0.000,-0.004,0.293
0.197,1.860,5.000,0.361,0.000,-0.004,0.275
0.310,1.746,5.000,0.378,0.000,-0.004,0.258
0.124,1.656,5.000,0.378,0.000,-0.004,0.245
0.109,1.486,5.000,0.378,0.000,-0.004,0.220
0.134,1.242,5.000,0.378,0.000,-0.004,0.184
0.071,1.015,5.000,0.378,0.000,-0.004,0.150
0.091,0.817,5.000,0.381,0.000,-0.004,0.121
0.033,0.647,5.000,0.378,0.000,-0.004,0.096
0.091,0.515,5.000,0.378,0.000,-0.004,0.076
0.145,0.479,5.000,0.380,0.000,-0.004,0.071
-0.010,0.499,5.000,0.380,0.000,-0.004,0.074
0.024,0.447,5.000,0.378,0.000,-0.004,0.066
-0.008,0.327,5.000,0.380,0.000,-0.004,0.048
0.006,0.200,5.000,0.380,0.000,-0.004,0.030
-0.025,0.085,5.000,0.378,0.000,-0.004,0.013
-0.045,-0.024,5.000,0.378,0.000,-0.004,-0.003
-0.092,-0.152,5.000,0.378,0.000,-0.004,-0.023
-0.107,-0.311,5.000,0.378,0.000,-0.004,-0.046
-0.143,-0.491,5.000,0.378,0.000,-0.004,-0.073
-0.059,-0.637,5.000,0.378,0.000,-0.004,-0.094
-0.116,-0.702,5.000,0.380,0.000,-0.004,-0.104
-0.181,-0.753,5.000,0.378,0.000,-0.004,-0.112
-0.169,-0.860,5.000,0.380,0.000,-0.004,-0.127
-0.142,-0.969,5.000,0.378,0.000,-0.004,-0.144
-0.192,-1.047,5.000,0.380,0.000,-0.004,-0.155
-0.166,-1.111,5.000,0.398,0.000,-0.004,-0.164
-0.159,-1.150,5.000,0.380,0.000,-0.004,-0.170
-0.047,-1.105,5.000,0.380,0.000,-0.004,-0.164
-0.007,-0.921,5.000,0.378,0.000,-0.004,-0.136
-0.048,-0.657,5.000,0.380,0.000,-0.004,-0.097
0.130,-0.367,5.000,0.378,0.000,-0.004,-0.054
-0.004,-0.062,5.000,0.377,0.000,-0.004,-0.009
0.187,0.217,5.000,0.378,0.000,-0.004,0.032
0.073,0.471,5.000,0.378,0.000,-0.004,0.070
0.118,0.655,5.000,0.380,0.000,-0.004,0.097
0.111,0.749,5.000,0.378,0.000,-0.004,0.111
0.011,0.752,5.000,0.378,0.000,-0.004,0.111
0.033,0.637,5.000,0.378,0.000,-0.004,0.094
0.102,0.504,5.000,0.380,0.000,-0.004,0.075
0.063,0.445,5.000,0.378,0.000,-0.004,0.066
0.080,0.437,5.000,0.380,0.000,-0.004,0.065
0.037,0.434,5.000,0.380,0.000,-0.004,0.064
0.052,0.412,5.000,0.378,0.000,-0.004,0.061
0.036,0.375,5.000,0.380,0.000,-0.004,0.055
0.109,0.363,5.000,0.380,0.000,-0.004,0.054
0.106,0.417,5.000,0.380,0.000,-0.004,0.062
0.048,0.492,5.000,0.380,0.000,-0.004,0.073
-0.070,0.459,5.000,0.380,0.000,-0.004,0.068
-0.065,0.266,5.000,0.380,0.000,-0.004,0.039
-0.086,-0.004,5.000,0.378,0.000,-0.004,-0.001
-0.014,-0.227,5.000,0.355,0.000,-0.004,-0.034
-0.020,-0.325,5.000,0.380,0.000,-0.004,-0.048
0.141,-0.253,5.000,0.380,0.000,-0.004,-0.037
0.219,0.041,5.000,0.378,0.000,-0.004,0.006
0.209,0.488,5.000,0.380,0.000,-0.004,0.072
0.255,0.937,5.000,0.380,0.000,-0.004,0.139
0.445,1.388,5.000,0.383,0.000,-0.004,0.205
0.399,1.888,5.000,0.380,0.000,-0.004,0.279
0.422,2.337,5.000,0.380,0.000,-0.004,0.346
0.379,2.634,5.000,0.380,0.000,-0.004,0.390
0.442,2.791,5.000,0.380,0.000,-0.004,0.413
0.366,2.850,5.000,0.380,0.000,-0.004,0.422
0.292,2.784,5.000,0.380,0.000,-0.004,0.412
0.277,2.579,5.000,0.380,0.000,-0.004,0.382
0.261,2.313,5.000,0.378,0.000,-0.004,0.342
0.245,2.058,5.000,0.378,0.000,-0.004,0.305
0.223,1.843,5.000,0.378,0.000,-0.004,0.273
0.182,1.657,5.000,0.380,0.000,-0.004,0.245
0.143,1.469,5.000,0.378,0.000,-0.004,0.218
0.123,1.270,5.000,0.380,0.000,-0.004,0.188
0.086,1.067,5.000,0.378,0.000,-0.004,0.158
0.116,0.885,5.000,0.380,0.000,-0.004,0.131
-0.126,0.666,5.000,0.380,0.000,-0.004,0.099
-0.115,0.302,5.000,0.380,0.000,-0.004,0.045
-0.175,-0.155,5.000,0.380,0.000,-0.004,-0.023
-0.213,-0.601,5.000,0.387,0.000,-0.004,-0.089
-0.247,-1.003,5.000,0.380,0.000,-0.004,-0.148
-0.266,-1.339,5.000,0.380,0.000,-0.004,-0.198
-0.360,-1.631,5.000,0.380,0.000,-0.004,-0.241
0.117,-1.720,5.000,0.381,0.000,-0.004,-0.255
-0.036,-1.403,5.000,0.380,0.000,-0.004,-0.208
0.059,-0.875,5.000,0.375,0.000,-0.004,-0.130
0.261,-0.283,5.000,0.380,0.000,-0.004,-0.042
0.161,0.356,5.000,0.380,0.000,-0.004,0.053
0.195,0.875,5.000,0.380,0.000,-0.004,0.130
0.328,1.254,5.000,0.380,0.000,-0.004,0.186
0.323,1.601,5.000,0.380,0.000,-0.004,0.237
0.343,1.908,5.000,0.380,0.000,-0.004,0.282
0.338,2.134,5.000,0.380,0.000,-0.004,0.316
0.325,2.267,5.000,0.381,0.000,-0.004,0.336
0.350,2.324,5.000,0.380,0.000,-0.004,0.344
0.298,2.326,5.000,0.381,0.000,-0.004,0.344
0.278,2.263,5.000,0.380,0.000,-0.004,0.335
0.377,2.189,5.000,0.381,0.000,-0.004,0.324
0.323,2.180,5.000,0.381,0.000,-0.004,0.323
0.308,2.192,5.000,0.381,0.000,-0.004,0.324
0.350,2.192,5.000,0.381,0.000,-0.004,0.325
0.290,2.192,5.000,0.380,0.000,-0.004,0.324
0.377,2.194,5.000,0.380,0.000,-0.004,0.325
0.037,2.104,5.000,0.380,0.000,-0.004,0.312
0.102,1.776,5.000,0.380,0.000,-0.004,0.263
0.036,1.309,5.000,0.380,0.000,-0.004,0.194
0.020,0.859,5.000,0.381,0.000,-0.004,0.127
-0.035,0.465,5.000,0.381,0.000,-0.004,0.069
0.071,0.184,5.000,0.381,0.000,-0.004,0.027
0.263,0.167,5.000,0.381,0.000,-0.004,0.025
0.330,0.504,5.000,0.391,0.000,-0.004,0.075
0.289,1.032,5.000,0.380,0.000,-0.004,0.153
0.384,1.549,5.000,0.380,0.000,-0.004,0.229
0.429,2.014,5.000,0.381,0.000,-0.004,0.298
0.455,2.430,5.000,0.381,0.000,-0.004,0.360
0.523,2.790,5.000,0.380,0.000,-0.004,0.413
0.565,3.121,5.000,0.380,0.000,-0.004,0.462
0.472,3.381,5.000,0.381,0.000,-0.004,0.501
0.441,3.474,5.000,0.381,0.000,-0.004,0.514
0.481,3.422,5.000,0.381,0.000,-0.004,0.507
0.444,3.323,5.000,0.380,0.000,-0.004,0.492
0.414,3.202,5.000,0.381,0.000,-0.004,0.474
0.398,3.053,5.000,0.380,0.000,-0.004,0.452
0.345,2.880,5.000,0.381,0.000,-0.004,0.426
0.398,2.711,5.000,0.381,0.000,-0.004,0.401
0.324,2.577,5.000,0.381,0.000,-0.004,0.381
0.423,2.493,5.000,0.380,0.000,-0.004,0.369
0.325,2.463,5.000,0.381,0.000,-0.004,0.365
0.298,2.413,5.000,0.381,0.000,-0.004,0.357
0.032,2.193,5.000,0.381,0.000,-0.004,0.325
-0.129,1.653,5.000,0.381,0.000,-0.004,0.245
-0.077,0.882,5.000,0.381,0.000,-0.004,0.131
-0.094,0.166,5.000,0.381,0.000,-0.004,0.025
-0.174,-0.374,5.000,0.381,0.000,-0.004,-0.055
0.000,-0.705,5.000,0.380,0.000,-0.004,-0.104
-0.136,-0.807,5.000,0.372,0.000,-0.004,-0.119
-0.121,-0.816,5.000,0.381,0.000,-0.004,-0.121
-0.086,-0.812,5.000,0.382,0.000,-0.004,-0.120
-0.066,-0.759,5.000,0.381,0.000,-0.004,-0.112
-0.133,-0.695,5.000,0.380,0.000,-0.004,-0.103
-0.024,-0.643,5.000,0.381,0.000,-0.004,-0.095
0.048,-0.517,5.000,0.382,0.000,-0.004,-0.077
0.016,-0.297,5.000,0.381,0.000,-0.004,-0.044
0.052,-0.072,5.000,0.381,0.000,-0.004,-0.011
-0.060,0.071,5.000,0.381,0.000,-0.004,0.010
